Sample ID:	C:\Users\MCC\Documents\MCC Data\ULINE_CB\ULINE_CB_MCC_N2_30K_231110_R1.txt
Sample Weight (mg):	3.94
Heating Rate (C/s):	0.5
Combustor Temp (C):	900
N2 Flow Rate (cc/min):	80
O2 Flow Rate (cc/min):	20
Calibration File:	C:\Users\MCC\Desktop\UMD MCC\MCC\Calibration Files\Coefficients\Coeff_231026_30K.txt
T Correction Coefficients:	0	1.0291	0
Time Shift (s):	8.5
*
Time (s)	Temperature (C)	N2 Flow (cc/min)	O2 Flow (cc/min)	End Flow (cc/min)	Oxygen (%)	HRR (W/g)
0.000	74.557	80.009	19.989	100.341	20.216	-0.071
0.500	74.595	80.009	19.989	100.343	20.215	-0.013
1.000	74.631	80.009	19.988	100.344	20.215	0.008
1.501	74.652	80.013	19.992	100.344	20.214	0.024
2.000	74.687	80.007	19.989	100.347	20.214	0.086
2.500	74.716	80.008	19.989	100.345	20.214	0.054
3.000	74.761	80.009	19.989	100.343	20.214	0.028
3.500	74.783	80.009	19.989	100.342	20.216	-0.073
4.000	74.810	80.011	19.990	100.342	20.216	-0.069
4.500	74.850	80.009	19.990	100.341	20.216	-0.115
5.000	74.888	80.008	19.989	100.343	20.215	-0.005
5.500	74.935	80.009	19.989	100.344	20.214	0.038
6.000	74.955	80.006	19.988	100.343	20.216	-0.095
6.500	74.978	80.010	19.989	100.342	20.217	-0.153
7.000	75.014	80.010	19.989	100.342	20.216	-0.122
7.500	75.071	80.010	19.989	100.341	20.218	-0.259
8.000	75.098	80.008	19.989	100.337	20.218	-0.259
8.500	75.146	80.011	19.990	100.336	20.216	-0.126
9.000	75.178	80.008	19.988	100.335	20.217	-0.207
9.500	75.209	80.009	19.989	100.334	20.217	-0.156
10.000	75.248	80.011	19.991	100.334	20.218	-0.238
10.500	75.272	80.009	19.990	100.339	20.218	-0.244
11.000	75.318	80.009	19.989	100.342	20.216	-0.117
11.500	75.359	80.009	19.989	100.345	20.218	-0.253
12.000	75.364	80.011	19.990	100.345	20.218	-0.291
12.500	75.426	80.010	19.990	100.346	20.217	-0.214
13.000	75.450	80.009	19.990	100.346	20.217	-0.169
13.500	75.490	80.007	19.988	100.345	20.218	-0.262
14.000	75.547	80.010	19.990	100.343	20.217	-0.216
14.501	75.589	80.009	19.990	100.341	20.217	-0.184
15.000	75.629	80.012	19.991	100.339	20.218	-0.242
15.500	75.666	80.009	19.990	100.339	20.219	-0.338
16.000	75.696	80.012	19.990	100.340	20.217	-0.188
16.500	75.724	80.007	19.988	100.341	20.218	-0.222
17.000	75.788	80.011	19.991	100.343	20.218	-0.260
17.500	75.810	80.005	19.988	100.346	20.218	-0.245
18.000	75.859	80.011	19.989	100.345	20.219	-0.351
18.500	75.905	80.006	19.989	100.344	20.219	-0.368
19.000	75.944	80.013	19.990	100.345	20.217	-0.166
19.500	75.977	80.004	19.986	100.345	20.218	-0.257
20.000	76.022	80.009	19.989	100.340	20.219	-0.339
20.500	76.055	80.012	19.990	100.341	20.219	-0.336
21.000	76.095	80.007	19.988	100.342	20.219	-0.331
21.500	76.144	80.007	19.989	100.342	20.218	-0.297
22.000	76.187	80.008	19.989	100.343	20.219	-0.376
22.500	76.240	80.014	19.993	100.346	20.220	-0.416
23.000	76.281	80.007	19.989	100.349	20.219	-0.324
23.500	76.328	80.014	19.992	100.348	20.221	-0.489
24.000	76.361	80.010	19.990	100.351	20.220	-0.394
24.500	76.400	80.013	19.992	100.351	20.220	-0.390
25.000	76.454	80.005	19.987	100.353	20.219	-0.334
25.500	76.493	80.015	19.992	100.348	20.219	-0.312
26.000	76.525	80.007	19.989	100.351	20.221	-0.474
26.500	76.588	80.013	19.991	100.347	20.221	-0.483
27.000	76.624	80.010	19.990	100.349	20.220	-0.384
27.500	76.677	80.005	19.988	100.347	20.220	-0.382
28.000	76.719	80.011	19.990	100.349	20.220	-0.411
28.500	76.771	80.010	19.989	100.347	20.218	-0.272
29.000	76.803	80.010	19.991	100.349	20.219	-0.314
29.500	76.863	80.013	19.992	100.349	20.218	-0.289
30.000	76.911	80.006	19.987	100.351	20.218	-0.296
30.500	76.964	80.010	19.990	100.351	20.218	-0.222
31.000	76.989	80.008	19.990	100.352	20.217	-0.219
31.500	77.044	80.013	19.992	100.354	20.218	-0.241
32.000	77.088	80.005	19.987	100.357	20.218	-0.254
32.500	77.159	80.005	19.987	100.360	20.216	-0.060
33.000	77.182	80.010	19.991	100.366	20.217	-0.189
33.500	77.251	80.009	19.989	100.371	20.217	-0.150
34.000	77.281	80.015	19.991	100.377	20.214	0.029
34.500	77.354	80.008	19.989	100.380	20.216	-0.093
35.000	77.396	80.008	19.987	100.383	20.216	-0.119
35.500	77.456	80.006	19.988	100.385	20.215	-0.004
36.000	77.491	80.006	19.988	100.385	20.213	0.175
36.500	77.550	80.007	19.988	100.382	20.214	0.025
37.000	77.622	80.010	19.989	100.381	20.213	0.100
37.501	77.663	80.008	19.989	100.380	20.214	0.087
38.001	77.736	80.009	19.988	100.382	20.212	0.193
38.500	77.772	80.015	19.992	100.387	20.210	0.408
39.000	77.847	80.012	19.991	100.396	20.212	0.245
39.500	77.913	80.011	19.989	100.402	20.210	0.411
40.000	77.958	80.007	19.988	100.409	20.210	0.383
40.500	78.031	80.016	19.992	100.413	20.210	0.377
41.000	78.090	80.007	19.988	100.418	20.209	0.480
41.500	78.149	80.009	19.989	100.418	20.206	0.678
42.000	78.216	80.007	19.988	100.421	20.207	0.604
42.500	78.277	80.011	19.990	100.422	20.207	0.636
43.000	78.358	80.008	19.989	100.427	20.203	0.917
43.500	78.415	80.012	19.991	100.425	20.203	0.909
44.001	78.500	80.014	19.991	100.430	20.202	1.034
44.501	78.571	80.003	19.986	100.435	20.203	0.964
45.000	78.635	80.014	19.991	100.434	20.201	1.097
45.501	78.701	80.007	19.988	100.435	20.201	1.098
46.001	78.784	80.009	19.989	100.435	20.198	1.305
46.500	78.864	80.010	19.989	100.439	20.199	1.274
47.000	78.940	80.014	19.991	100.440	20.197	1.417
47.500	79.038	80.008	19.989	100.451	20.195	1.601
48.000	79.115	80.016	19.992	100.457	20.196	1.522
48.501	79.190	80.009	19.990	100.469	20.194	1.636
49.001	79.284	80.022	19.995	100.471	20.193	1.742
49.500	79.363	80.012	19.991	100.483	20.191	1.853
50.000	79.476	80.016	19.992	100.486	20.191	1.858
50.500	79.572	80.022	19.995	100.496	20.192	1.818
51.000	79.640	80.010	19.990	100.504	20.190	1.976
51.501	79.722	80.014	19.991	100.513	20.189	2.059
52.001	79.882	80.009	19.990	100.521	20.187	2.179
52.500	79.945	80.015	19.992	100.537	20.185	2.406
53.001	80.067	80.015	19.992	100.552	20.183	2.498
53.501	80.173	80.009	19.990	100.564	20.181	2.674
54.001	80.280	80.002	19.986	100.576	20.180	2.762
54.501	80.411	80.015	19.992	100.578	20.178	2.924
55.001	80.508	80.020	19.993	100.583	20.177	2.980
55.501	80.653	80.006	19.989	100.590	20.174	3.223
56.001	80.770	80.005	19.989	100.594	20.173	3.364
56.500	80.896	80.009	19.989	100.600	20.173	3.352
57.000	81.026	80.010	19.989	100.610	20.171	3.517
57.500	81.164	80.011	19.992	100.614	20.169	3.620
58.000	81.296	80.007	19.988	100.615	20.169	3.685
58.500	81.416	80.007	19.988	100.614	20.167	3.828
59.000	81.590	80.014	19.992	100.615	20.166	3.880
59.500	81.713	80.003	19.988	100.617	20.164	4.032
60.000	81.878	80.001	19.986	100.618	20.165	3.941
60.500	82.024	80.009	19.990	100.618	20.164	4.054
61.000	82.174	80.011	19.993	100.624	20.161	4.320
61.500	82.338	80.008	19.991	100.631	20.163	4.132
62.000	82.483	80.004	19.989	100.635	20.162	4.223
62.500	82.672	80.010	19.991	100.642	20.160	4.341
63.000	82.819	80.011	19.991	100.647	20.159	4.419
63.500	82.989	80.009	19.991	100.651	20.159	4.480
64.000	83.179	80.016	19.993	100.645	20.157	4.584
64.501	83.344	80.009	19.991	100.643	20.157	4.572
65.001	83.535	79.997	19.985	100.637	20.155	4.735
65.500	83.701	80.010	19.990	100.626	20.155	4.753
66.000	83.901	80.012	19.993	100.618	20.155	4.721
66.501	84.065	79.991	19.983	100.617	20.157	4.610
67.001	84.265	80.007	19.990	100.607	20.156	4.642
67.500	84.435	80.009	19.991	100.603	20.156	4.684
68.000	84.635	80.009	19.991	100.606	20.157	4.596
68.500	84.851	79.996	19.985	100.607	20.156	4.660
69.000	85.010	79.998	19.985	100.604	20.157	4.614
69.500	85.242	79.996	19.985	100.607	20.155	4.749
70.000	85.407	80.015	19.993	100.606	20.155	4.728
70.500	85.627	80.011	19.992	100.610	20.155	4.778
71.000	85.833	80.007	19.990	100.612	20.155	4.748
71.500	86.033	80.015	19.994	100.615	20.155	4.780
72.000	86.253	80.007	19.989	100.623	20.155	4.731
72.500	86.470	80.012	19.993	100.628	20.155	4.783
73.000	86.689	80.015	19.993	100.628	20.155	4.798
73.500	86.876	80.005	19.988	100.628	20.155	4.747
74.000	87.106	80.004	19.989	100.626	20.154	4.811
74.500	87.326	80.000	19.987	100.622	20.154	4.807
75.000	87.538	80.006	19.989	100.621	20.154	4.807
75.500	87.780	80.014	19.992	100.618	20.154	4.863
76.000	87.982	80.005	19.988	100.620	20.155	4.762
76.500	88.216	80.014	19.993	100.623	20.154	4.839
77.001	88.431	80.006	19.988	100.629	20.154	4.833
77.501	88.678	80.011	19.991	100.628	20.156	4.710
78.000	88.885	80.005	19.988	100.632	20.155	4.785
78.500	89.121	80.013	19.992	100.628	20.155	4.786
79.000	89.382	80.012	19.992	100.628	20.154	4.874
79.500	89.601	80.013	19.992	100.625	20.155	4.755
80.000	89.851	80.012	19.992	100.628	20.155	4.756
80.500	90.086	80.014	19.992	100.626	20.153	4.915
81.000	90.318	80.009	19.990	100.629	20.153	4.885
81.500	90.558	80.021	19.996	100.630	20.154	4.849
82.000	90.802	79.999	19.985	100.633	20.153	4.888
82.500	91.074	80.005	19.988	100.628	20.153	4.899
83.000	91.295	79.999	19.986	100.625	20.154	4.824
83.500	91.558	80.009	19.990	100.624	20.154	4.872
84.000	91.792	80.010	19.990	100.635	20.152	4.967
84.500	92.048	80.004	19.989	100.628	20.154	4.881
85.000	92.323	80.014	19.992	100.625	20.154	4.841
85.500	92.577	79.989	19.981	100.627	20.153	4.936
86.000	92.851	80.002	19.988	100.616	20.153	4.951
86.500	93.074	80.012	19.992	100.602	20.152	4.994
87.000	93.356	80.001	19.985	100.608	20.154	4.832
87.500	93.602	80.013	19.991	100.620	20.154	4.829
88.000	93.872	80.008	19.990	100.628	20.152	5.015
88.500	94.140	80.003	19.987	100.640	20.153	4.891
89.000	94.405	80.012	19.991	100.642	20.154	4.804
89.500	94.667	80.008	19.989	100.647	20.153	4.958
90.001	94.906	80.009	19.989	100.650	20.153	4.906
90.501	95.218	80.011	19.990	100.648	20.154	4.869
91.000	95.456	80.003	19.987	100.652	20.153	4.890
91.500	95.739	80.005	19.987	100.656	20.153	4.960
92.000	96.014	80.002	19.985	100.652	20.154	4.866
92.500	96.286	80.020	19.995	100.644	20.153	4.959
93.000	96.582	80.008	19.989	100.643	20.154	4.826
93.500	96.832	80.004	19.986	100.635	20.154	4.831
94.000	97.117	80.009	19.989	100.629	20.153	4.946
94.500	97.382	80.006	19.987	100.626	20.154	4.854
95.000	97.680	80.007	19.988	100.630	20.153	4.957
95.500	97.945	80.009	19.989	100.624	20.151	5.059
96.000	98.229	80.018	19.993	100.625	20.155	4.761
96.500	98.532	79.999	19.984	100.631	20.154	4.815
97.000	98.789	80.015	19.993	100.627	20.153	4.905
97.500	99.096	80.004	19.988	100.626	20.154	4.867
98.000	99.351	80.008	19.990	100.625	20.154	4.804
98.500	99.665	80.008	19.989	100.623	20.154	4.807
99.000	99.946	80.003	19.988	100.620	20.154	4.805
99.500	100.220	80.011	19.990	100.625	20.155	4.785
100.000	100.536	80.006	19.988	100.623	20.155	4.778
100.500	100.795	80.013	19.991	100.625	20.155	4.737
101.000	101.112	80.001	19.986	100.627	20.156	4.646
101.500	101.386	80.003	19.986	100.624	20.156	4.702
102.000	101.704	80.002	19.986	100.620	20.156	4.716
102.501	101.986	80.011	19.991	100.617	20.157	4.638
103.001	102.290	80.016	19.993	100.618	20.157	4.599
103.501	102.577	80.004	19.987	100.620	20.157	4.567
104.001	102.856	79.998	19.984	100.622	20.156	4.649
104.501	103.202	80.008	19.989	100.621	20.158	4.500
105.001	103.457	80.006	19.988	100.626	20.158	4.533
105.500	103.773	80.006	19.988	100.625	20.157	4.592
106.000	104.070	80.000	19.985	100.621	20.157	4.592
106.500	104.360	80.016	19.993	100.619	20.155	4.729
107.000	104.689	80.008	19.989	100.625	20.157	4.601
107.500	104.949	79.997	19.985	100.621	20.157	4.604
108.000	105.276	80.002	19.986	100.615	20.158	4.482
108.500	105.568	80.008	19.989	100.613	20.157	4.619
109.000	105.884	80.002	19.987	100.614	20.159	4.480
109.500	106.174	80.011	19.990	100.607	20.156	4.689
110.000	106.464	80.003	19.986	100.605	20.160	4.347
110.500	106.789	80.011	19.990	100.602	20.159	4.443
111.000	107.082	79.995	19.983	100.604	20.159	4.465
111.500	107.414	80.007	19.988	100.599	20.158	4.519
112.000	107.687	80.007	19.988	100.599	20.159	4.438
112.500	108.014	80.020	19.995	100.597	20.159	4.411
113.000	108.306	80.020	19.994	100.605	20.159	4.429
113.500	108.611	80.009	19.988	100.604	20.161	4.288
114.000	108.925	80.013	19.990	100.602	20.160	4.365
114.500	109.201	80.017	19.993	100.600	20.163	4.106
115.000	109.559	80.006	19.987	100.603	20.161	4.319
115.500	109.826	80.011	19.990	100.596	20.162	4.230
116.000	110.135	80.003	19.986	100.593	20.161	4.298
116.500	110.450	80.007	19.988	100.593	20.161	4.287
117.000	110.756	80.005	19.987	100.591	20.162	4.232
117.500	111.082	80.011	19.990	100.584	20.161	4.298
118.000	111.341	80.022	19.996	100.583	20.163	4.159
118.500	111.700	80.009	19.989	100.586	20.163	4.154
119.000	111.966	80.025	19.997	100.585	20.163	4.139
119.501	112.294	80.017	19.993	100.592	20.164	4.014
120.001	112.592	80.009	19.989	100.598	20.164	4.050
120.500	112.900	80.007	19.988	100.592	20.164	4.016
121.000	113.225	80.000	19.984	100.583	20.164	4.025
121.500	113.471	80.010	19.990	100.574	20.164	4.051
122.000	113.834	80.004	19.987	100.565	20.165	3.954
122.500	114.135	80.004	19.987	100.555	20.164	4.027
123.000	114.443	80.004	19.986	100.555	20.164	4.004
123.500	114.746	80.000	19.984	100.556	20.164	4.024
124.000	115.046	80.004	19.986	100.562	20.166	3.894
124.500	115.353	80.016	19.992	100.561	20.166	3.905
125.000	115.622	80.020	19.994	100.566	20.165	3.956
125.501	115.963	80.015	19.992	100.573	20.166	3.884
126.001	116.245	80.017	19.993	100.569	20.166	3.867
126.501	116.558	80.006	19.987	100.569	20.167	3.836
127.001	116.859	80.011	19.990	100.564	20.167	3.826
127.501	117.176	80.006	19.989	100.560	20.167	3.839
128.000	117.487	80.008	19.989	100.553	20.166	3.868
128.500	117.773	80.004	19.987	100.551	20.167	3.803
129.000	118.109	79.998	19.985	100.547	20.166	3.863
129.500	118.373	80.011	19.990	100.545	20.166	3.873
130.000	118.708	79.994	19.982	100.544	20.168	3.726
130.500	118.994	80.008	19.988	100.536	20.167	3.811
131.000	119.304	80.002	19.985	100.535	20.168	3.755
131.500	119.608	80.010	19.990	100.532	20.169	3.626
132.000	119.877	80.011	19.991	100.536	20.169	3.652
132.500	120.223	80.009	19.990	100.536	20.169	3.669
133.000	120.497	79.996	19.983	100.542	20.169	3.626
133.500	120.805	80.013	19.990	100.536	20.170	3.532
134.000	121.096	80.015	19.993	100.540	20.171	3.451
134.500	121.384	80.003	19.986	100.542	20.170	3.548
135.000	121.717	80.017	19.994	100.536	20.171	3.464
135.500	121.989	80.007	19.988	100.539	20.170	3.561
136.000	122.318	80.009	19.990	100.544	20.170	3.541
136.500	122.577	80.012	19.991	100.544	20.172	3.421
137.000	122.899	79.999	19.986	100.544	20.171	3.473
137.500	123.192	80.007	19.990	100.545	20.171	3.483
138.000	123.497	79.999	19.984	100.543	20.171	3.471
138.500	123.809	80.006	19.988	100.540	20.172	3.408
139.000	124.074	80.008	19.989	100.539	20.171	3.457
139.500	124.393	80.000	19.986	100.537	20.172	3.370
140.000	124.663	80.013	19.992	100.538	20.173	3.298
140.500	124.989	80.009	19.990	100.539	20.175	3.135
141.001	125.268	80.005	19.988	100.543	20.174	3.252
141.501	125.558	80.015	19.992	100.543	20.174	3.273
142.000	125.872	80.005	19.988	100.546	20.174	3.254
142.500	126.146	80.006	19.988	100.547	20.173	3.302
143.000	126.470	80.012	19.991	100.543	20.174	3.209
143.500	126.739	80.006	19.989	100.545	20.174	3.242
144.000	127.044	80.006	19.987	100.545	20.175	3.201
144.500	127.319	80.013	19.992	100.541	20.175	3.196
145.000	127.603	80.012	19.991	100.543	20.175	3.134
145.500	127.915	80.008	19.989	100.545	20.175	3.168
146.000	128.174	80.009	19.989	100.538	20.175	3.175
146.500	128.517	80.007	19.989	100.536	20.176	3.122
147.000	128.769	80.005	19.987	100.536	20.176	3.095
147.500	129.070	80.007	19.988	100.533	20.177	3.013
148.000	129.361	80.011	19.990	100.531	20.176	3.066
148.500	129.651	80.003	19.987	100.535	20.176	3.062
149.000	129.942	80.004	19.987	100.520	20.176	3.087
149.500	130.224	80.005	19.987	100.512	20.177	2.966
150.000	130.545	80.011	19.990	100.510	20.177	3.023
150.500	130.785	80.000	19.985	100.511	20.178	2.945
151.000	131.077	80.014	19.992	100.508	20.177	3.013
151.500	131.377	80.011	19.989	100.525	20.178	2.933
152.000	131.652	80.019	19.994	100.538	20.179	2.833
152.500	131.953	80.007	19.988	100.539	20.178	2.912
153.000	132.198	80.006	19.987	100.531	20.177	3.020
153.500	132.536	80.004	19.987	100.525	20.178	2.927
154.000	132.797	80.002	19.985	100.514	20.178	2.895
154.500	133.092	80.014	19.991	100.499	20.178	2.889
155.000	133.376	80.012	19.991	100.494	20.178	2.932
155.500	133.631	80.015	19.991	100.497	20.178	2.894
156.000	133.934	80.008	19.987	100.498	20.178	2.945
156.500	134.182	80.012	19.990	100.497	20.179	2.822
157.000	134.492	80.008	19.988	100.498	20.179	2.819
157.500	134.738	80.023	19.996	100.490	20.179	2.819
158.000	135.060	80.008	19.987	100.493	20.179	2.810
158.500	135.321	80.015	19.992	100.491	20.179	2.882
159.000	135.576	80.011	19.990	100.495	20.179	2.878
159.500	135.884	80.018	19.992	100.497	20.179	2.853
160.000	136.137	80.013	19.989	100.501	20.181	2.723
160.500	136.440	80.009	19.989	100.490	20.180	2.776
161.000	136.689	80.006	19.987	100.484	20.180	2.780
161.500	136.984	80.009	19.989	100.477	20.178	2.907
162.000	137.256	80.008	19.988	100.473	20.179	2.808
162.500	137.513	80.008	19.989	100.470	20.180	2.764
163.000	137.804	80.017	19.993	100.472	20.180	2.756
163.500	138.058	80.013	19.991	100.479	20.180	2.752
164.000	138.366	80.006	19.987	100.486	20.179	2.816
164.500	138.607	80.005	19.987	100.484	20.180	2.801
165.000	138.897	80.017	19.991	100.484	20.180	2.751
165.500	139.144	80.007	19.987	100.483	20.179	2.822
166.000	139.420	80.003	19.986	100.478	20.180	2.767
166.500	139.690	80.013	19.989	100.474	20.181	2.659
167.000	139.948	79.999	19.985	100.480	20.180	2.731
167.500	140.233	80.012	19.988	100.477	20.179	2.842
168.000	140.481	80.008	19.990	100.480	20.180	2.746
168.500	140.773	80.006	19.988	100.484	20.180	2.732
169.001	141.032	80.008	19.989	100.484	20.180	2.764
169.500	141.310	80.013	19.991	100.485	20.181	2.690
170.000	141.586	80.013	19.989	100.485	20.181	2.661
170.500	141.832	80.012	19.990	100.485	20.182	2.587
171.000	142.130	80.005	19.989	100.487	20.181	2.673
171.500	142.365	80.006	19.987	100.487	20.182	2.573
172.000	142.635	80.008	19.991	100.481	20.182	2.636
172.500	142.913	80.005	19.990	100.480	20.180	2.739
173.000	143.168	80.017	19.990	100.476	20.181	2.655
173.500	143.440	80.008	19.989	100.472	20.182	2.637
174.000	143.682	80.017	19.991	100.475	20.183	2.562
174.500	143.988	80.008	19.989	100.479	20.183	2.529
175.000	144.211	80.013	19.991	100.482	20.181	2.664
175.500	144.494	80.009	19.989	100.482	20.182	2.568
176.000	144.749	80.012	19.993	100.477	20.182	2.612
176.500	145.002	80.019	19.992	100.475	20.183	2.535
177.000	145.272	80.001	19.985	100.476	20.182	2.586
177.500	145.518	80.011	19.988	100.468	20.182	2.573
178.000	145.817	80.019	19.989	100.466	20.182	2.596
178.500	146.033	80.015	19.987	100.468	20.183	2.506
179.000	146.321	80.021	19.993	100.463	20.183	2.502
179.500	146.583	80.024	19.996	100.460	20.182	2.613
180.000	146.825	80.026	19.994	100.470	20.183	2.493
180.500	147.096	80.017	19.993	100.477	20.183	2.504
181.000	147.313	80.002	19.987	100.481	20.183	2.564
181.500	147.623	80.004	19.986	100.479	20.184	2.483
182.000	147.851	79.982	19.978	100.475	20.182	2.639
182.500	148.124	80.019	19.991	100.460	20.183	2.565
183.000	148.370	80.008	19.989	100.457	20.183	2.490
183.500	148.637	80.015	19.986	100.452	20.183	2.534
184.000	148.905	80.025	19.997	100.455	20.184	2.440
184.500	149.146	80.011	19.991	100.468	20.183	2.514
185.000	149.433	80.035	20.000	100.480	20.183	2.502
185.500	149.671	79.982	19.976	100.487	20.183	2.508
186.000	149.936	80.017	19.992	100.478	20.184	2.482
186.500	150.204	80.024	19.994	100.480	20.182	2.595
187.000	150.424	80.044	20.004	100.475	20.184	2.413
187.500	150.698	80.012	19.991	100.480	20.183	2.524
188.000	150.927	80.022	19.994	100.465	20.183	2.520
188.500	151.216	80.028	19.998	100.478	20.184	2.444
189.000	151.439	80.022	19.998	100.478	20.184	2.460
189.500	151.710	79.988	19.979	100.485	20.186	2.303
190.000	151.947	80.010	19.988	100.466	20.185	2.358
190.500	152.207	80.000	19.985	100.468	20.184	2.422
191.000	152.459	80.008	19.989	100.456	20.185	2.394
191.500	152.698	80.006	19.989	100.451	20.185	2.349
192.000	152.966	80.007	19.986	100.439	20.184	2.427
192.500	153.202	80.024	19.995	100.446	20.184	2.447
193.000	153.463	80.014	19.989	100.459	20.185	2.343
193.500	153.712	80.011	19.991	100.469	20.184	2.464
194.000	153.967	80.001	19.988	100.473	20.185	2.337
194.500	154.226	79.995	19.982	100.473	20.185	2.388
195.000	154.456	80.005	19.988	100.470	20.184	2.429
195.500	154.736	79.998	19.982	100.458	20.185	2.404
196.000	154.949	80.026	19.998	100.450	20.184	2.456
196.500	155.209	80.015	19.990	100.459	20.185	2.361
197.000	155.462	80.017	19.987	100.463	20.185	2.356
197.500	155.713	80.019	19.992	100.469	20.184	2.428
198.000	155.966	79.996	19.984	100.474	20.183	2.517
198.500	156.188	79.999	19.984	100.480	20.185	2.370
199.000	156.447	79.985	19.979	100.466	20.186	2.285
199.500	156.677	80.019	19.993	100.457	20.185	2.371
200.000	156.954	80.008	19.988	100.461	20.187	2.208
200.500	157.186	79.997	19.984	100.460	20.186	2.307
201.000	157.430	80.032	19.997	100.461	20.185	2.375
201.500	157.699	79.991	19.981	100.470	20.185	2.333
202.000	157.924	80.017	19.990	100.468	20.187	2.241
202.500	158.206	80.001	19.984	100.466	20.185	2.365
203.000	158.438	80.004	19.985	100.463	20.185	2.332
203.500	158.700	80.015	19.991	100.460	20.185	2.334
204.000	158.944	80.016	19.994	100.454	20.185	2.370
204.500	159.189	80.028	19.996	100.465	20.185	2.380
205.000	159.447	80.018	19.983	100.468	20.184	2.417
205.500	159.658	80.014	19.989	100.465	20.185	2.394
206.000	159.953	80.003	19.990	100.469	20.186	2.320
206.500	160.166	80.010	19.992	100.470	20.185	2.378
207.000	160.415	80.016	19.991	100.470	20.185	2.401
207.500	160.673	80.006	19.989	100.465	20.185	2.351
208.000	160.925	80.009	19.987	100.471	20.185	2.375
208.500	161.167	80.014	19.993	100.469	20.185	2.353
209.000	161.384	80.018	19.989	100.472	20.185	2.368
209.500	161.685	80.013	19.990	100.469	20.185	2.371
210.000	161.890	80.009	19.986	100.466	20.185	2.355
210.500	162.151	80.016	19.992	100.463	20.185	2.383
211.000	162.383	80.002	19.989	100.466	20.186	2.306
211.500	162.622	80.012	19.992	100.461	20.186	2.291
212.000	162.905	80.010	19.986	100.465	20.185	2.399
212.500	163.127	80.009	19.988	100.468	20.188	2.160
213.000	163.396	80.011	19.989	100.472	20.187	2.225
213.500	163.631	80.006	19.986	100.470	20.186	2.315
214.000	163.884	80.011	19.989	100.469	20.185	2.331
214.500	164.115	80.013	19.990	100.469	20.185	2.346
215.000	164.358	80.013	19.987	100.469	20.185	2.394
215.500	164.621	80.007	19.988	100.467	20.186	2.306
216.000	164.852	80.010	19.989	100.468	20.186	2.317
216.500	165.133	80.004	19.987	100.470	20.185	2.396
217.000	165.348	80.002	19.988	100.469	20.187	2.246
217.500	165.623	80.010	19.992	100.468	20.186	2.260
218.000	165.848	80.011	19.990	100.476	20.185	2.362
218.500	166.077	79.996	19.986	100.477	20.185	2.350
219.000	166.334	80.001	19.983	100.477	20.185	2.358
219.500	166.566	80.014	19.990	100.473	20.185	2.358
220.000	166.845	80.012	19.994	100.473	20.184	2.472
220.500	167.074	80.017	19.994	100.472	20.184	2.433
221.000	167.335	80.009	19.988	100.474	20.185	2.345
221.500	167.593	80.010	19.992	100.472	20.186	2.268
222.000	167.834	80.008	19.986	100.475	20.183	2.542
222.500	168.076	80.018	19.988	100.473	20.185	2.347
223.000	168.298	80.013	19.990	100.465	20.183	2.497
223.500	168.578	80.020	19.994	100.463	20.184	2.450
224.000	168.813	80.013	19.989	100.467	20.184	2.481
224.500	169.071	80.012	19.990	100.464	20.184	2.461
225.000	169.295	80.012	19.988	100.466	20.183	2.519
225.500	169.550	80.014	19.991	100.468	20.184	2.435
226.000	169.819	80.008	19.987	100.467	20.184	2.439
226.500	170.041	80.005	19.988	100.460	20.183	2.495
227.000	170.328	80.011	19.993	100.460	20.184	2.418
227.501	170.539	80.008	19.989	100.465	20.184	2.453
228.000	170.820	80.005	19.990	100.465	20.183	2.539
228.500	171.065	80.012	19.990	100.465	20.183	2.532
229.000	171.284	80.003	19.989	100.468	20.183	2.534
229.500	171.541	80.010	19.984	100.470	20.184	2.472
230.000	171.791	80.010	19.989	100.460	20.184	2.453
230.500	172.048	80.001	19.991	100.461	20.183	2.533
231.000	172.279	79.997	19.984	100.463	20.183	2.524
231.500	172.543	80.016	19.994	100.459	20.182	2.572
232.000	172.788	80.001	19.985	100.462	20.183	2.505
232.500	173.030	80.003	19.991	100.463	20.182	2.584
233.000	173.280	80.012	19.991	100.464	20.182	2.606
233.500	173.525	80.006	19.989	100.462	20.183	2.521
234.000	173.805	80.011	19.991	100.466	20.184	2.454
234.500	174.042	80.005	19.987	100.464	20.183	2.520
235.000	174.298	80.003	19.991	100.466	20.183	2.563
235.500	174.530	80.000	19.984	100.467	20.183	2.565
236.000	174.779	80.008	19.991	100.464	20.183	2.525
236.501	175.031	80.010	19.984	100.465	20.183	2.537
237.000	175.268	80.010	19.989	100.458	20.181	2.676
237.500	175.561	80.009	19.990	100.459	20.182	2.578
238.000	175.803	80.009	19.990	100.458	20.181	2.658
238.500	176.057	80.005	19.988	100.462	20.183	2.564
239.000	176.303	79.996	19.981	100.460	20.183	2.564
239.500	176.544	80.020	19.997	100.458	20.183	2.496
240.000	176.812	80.011	19.989	100.465	20.184	2.482
240.500	177.048	79.988	19.981	100.465	20.182	2.574
241.000	177.339	79.999	19.984	100.457	20.182	2.612
241.500	177.554	80.020	19.995	100.453	20.182	2.615
242.000	177.816	79.999	19.985	100.465	20.182	2.602
242.500	178.076	80.006	19.989	100.454	20.183	2.552
243.000	178.319	80.005	19.988	100.451	20.181	2.656
243.500	178.572	80.015	19.992	100.458	20.182	2.640
244.000	178.816	80.010	19.990	100.465	20.181	2.648
244.500	179.096	80.007	19.989	100.460	20.184	2.456
245.000	179.314	80.017	19.988	100.464	20.183	2.539
245.500	179.585	80.016	19.993	100.464	20.182	2.584
246.000	179.836	80.004	19.989	100.470	20.183	2.487
246.500	180.087	80.015	19.994	100.466	20.184	2.450
247.000	180.350	80.011	19.991	100.469	20.183	2.545
247.500	180.570	80.010	19.991	100.470	20.182	2.579
248.000	180.876	80.008	19.990	100.473	20.183	2.488
248.500	181.098	80.005	19.988	100.468	20.184	2.455
249.000	181.371	80.010	19.991	100.468	20.184	2.466
249.500	181.628	80.011	19.992	100.466	20.184	2.411
250.000	181.866	80.007	19.990	100.466	20.184	2.468
250.500	182.141	80.002	19.987	100.465	20.184	2.449
251.000	182.363	80.014	19.991	100.463	20.185	2.366
251.500	182.645	80.004	19.988	100.464	20.184	2.441
252.000	182.889	80.005	19.990	100.462	20.185	2.370
252.500	183.162	80.003	19.989	100.461	20.185	2.353
253.000	183.414	80.010	19.993	100.459	20.185	2.359
253.500	183.678	80.004	19.987	100.464	20.184	2.420
254.000	183.927	80.010	19.988	100.461	20.185	2.392
254.500	184.165	80.009	19.992	100.460	20.184	2.447
255.000	184.456	80.007	19.989	100.462	20.185	2.401
255.500	184.692	80.004	19.990	100.463	20.184	2.452
256.000	184.968	80.004	19.987	100.461	20.184	2.429
256.500	185.206	80.013	19.992	100.462	20.184	2.447
257.000	185.468	80.005	19.984	100.467	20.184	2.440
257.500	185.735	80.016	19.990	100.462	20.184	2.425
258.000	185.952	80.011	19.987	100.460	20.184	2.469
258.500	186.258	80.005	19.987	100.456	20.183	2.511
259.000	186.483	80.010	19.992	100.455	20.184	2.407
259.500	186.745	80.007	19.988	100.455	20.182	2.569
260.000	187.007	80.003	19.988	100.460	20.183	2.496
260.500	187.248	79.994	19.984	100.461	20.183	2.526
261.000	187.511	80.006	19.988	100.461	20.181	2.690
261.500	187.772	80.008	19.992	100.464	20.182	2.574
262.000	188.034	80.010	19.990	100.465	20.183	2.490
262.500	188.279	80.008	19.986	100.465	20.183	2.514
263.000	188.552	80.019	19.992	100.464	20.183	2.488
263.500	188.815	79.997	19.990	100.468	20.183	2.491
264.000	189.060	80.011	19.985	100.472	20.183	2.545
264.500	189.341	79.999	19.984	100.464	20.182	2.604
265.000	189.571	80.022	19.995	100.461	20.183	2.539
265.500	189.856	80.000	19.990	100.467	20.183	2.553
266.000	190.097	80.011	19.992	100.466	20.183	2.528
266.500	190.364	80.008	19.989	100.466	20.184	2.477
267.000	190.613	80.002	19.988	100.471	20.183	2.515
267.500	190.867	80.011	19.989	100.472	20.183	2.535
268.000	191.128	80.008	19.986	100.469	20.183	2.499
268.500	191.380	80.005	19.990	100.467	20.183	2.503
269.000	191.681	80.014	19.992	100.462	20.183	2.492
269.500	191.912	80.012	19.991	100.462	20.183	2.533
270.000	192.183	80.003	19.984	100.461	20.183	2.488
270.500	192.425	80.007	19.990	100.455	20.183	2.518
271.000	192.689	80.009	19.991	100.454	20.182	2.578
271.500	192.955	80.013	19.989	100.457	20.182	2.581
272.000	193.185	80.003	19.988	100.453	20.182	2.566
272.500	193.489	80.012	19.992	100.453	20.182	2.588
273.000	193.707	80.013	19.993	100.459	20.184	2.451
273.500	193.990	80.010	19.994	100.463	20.184	2.474
274.000	194.232	80.002	19.987	100.466	20.182	2.571
274.500	194.490	80.012	19.993	100.465	20.182	2.639
275.000	194.766	80.001	19.988	100.469	20.181	2.715
275.500	195.019	80.002	19.987	100.464	20.184	2.432
276.000	195.311	80.013	19.990	100.460	20.183	2.555
276.500	195.560	80.002	19.991	100.456	20.183	2.514
277.000	195.810	80.000	19.984	100.460	20.182	2.601
277.500	196.053	80.008	19.986	100.455	20.182	2.589
278.000	196.304	80.008	19.987	100.456	20.184	2.482
278.500	196.597	80.014	19.990	100.456	20.184	2.445
279.000	196.832	80.013	19.988	100.456	20.184	2.458
279.500	197.118	80.006	19.989	100.452	20.182	2.602
280.000	197.341	80.013	19.991	100.456	20.182	2.616
280.500	197.627	80.013	19.989	100.460	20.182	2.567
281.000	197.886	80.002	19.984	100.457	20.181	2.648
281.500	198.147	80.013	19.993	100.452	20.182	2.622
282.000	198.418	80.012	19.991	100.456	20.183	2.528
282.500	198.644	80.003	19.988	100.454	20.183	2.524
283.000	198.935	80.011	19.989	100.448	20.182	2.621
283.500	199.186	80.004	19.988	100.451	20.182	2.617
284.000	199.449	80.009	19.990	100.450	20.182	2.628
284.500	199.708	80.012	19.992	100.446	20.181	2.661
285.000	199.963	80.013	19.992	100.442	20.181	2.647
285.500	200.248	80.003	19.991	100.446	20.183	2.542
286.000	200.463	80.015	19.993	100.441	20.184	2.440
286.500	200.762	80.007	19.988	100.443	20.182	2.626
287.000	201.007	80.008	19.987	100.441	20.181	2.717
287.500	201.266	80.003	19.988	100.440	20.181	2.705
288.000	201.518	80.007	19.988	100.436	20.180	2.765
288.500	201.793	80.009	19.988	100.435	20.181	2.700
289.000	202.058	80.001	19.984	100.433	20.181	2.695
289.500	202.284	80.011	19.990	100.428	20.182	2.637
290.000	202.586	79.992	19.982	100.428	20.180	2.737
290.500	202.827	80.012	19.991	100.421	20.181	2.710
291.000	203.108	79.999	19.984	100.422	20.180	2.761
291.500	203.360	79.997	19.985	100.415	20.181	2.709
292.000	203.616	80.004	19.988	100.416	20.180	2.796
292.500	203.891	80.019	19.997	100.417	20.180	2.764
293.000	204.123	80.019	19.994	100.433	20.180	2.767
293.500	204.410	80.009	19.990	100.441	20.180	2.731
294.000	204.655	80.004	19.986	100.449	20.182	2.621
294.500	204.930	80.006	19.994	100.450	20.182	2.639
295.000	205.194	79.997	19.985	100.455	20.182	2.618
295.500	205.433	80.014	19.993	100.445	20.181	2.697
296.000	205.719	79.997	19.985	100.443	20.181	2.719
296.500	205.942	80.006	19.986	100.435	20.180	2.768
297.000	206.255	80.009	19.988	100.435	20.180	2.758
297.501	206.474	80.010	19.995	100.425	20.181	2.700
298.001	206.749	80.004	19.991	100.429	20.179	2.819
298.500	206.999	80.002	19.989	100.426	20.181	2.659
299.000	207.249	79.999	19.984	100.430	20.183	2.550
299.500	207.530	80.012	19.993	100.428	20.181	2.670
300.000	207.767	80.008	19.991	100.433	20.179	2.872
300.500	208.058	80.008	19.985	100.427	20.181	2.722
301.000	208.298	80.015	19.991	100.418	20.180	2.773
301.500	208.557	80.054	20.003	100.419	20.180	2.797
302.000	208.817	80.007	19.990	100.434	20.180	2.772
302.500	209.063	80.008	19.992	100.430	20.179	2.813
303.000	209.353	80.030	20.001	100.431	20.181	2.657
303.500	209.598	80.015	19.995	100.446	20.181	2.710
304.000	209.881	80.002	19.988	100.451	20.180	2.771
304.500	210.124	80.005	19.989	100.436	20.180	2.792
305.000	210.395	80.007	19.990	100.436	20.180	2.794
305.500	210.643	79.981	19.978	100.436	20.180	2.732
306.000	210.880	79.998	19.987	100.417	20.180	2.748
306.500	211.173	80.025	19.997	100.409	20.179	2.827
307.000	211.410	80.017	19.991	100.421	20.180	2.761
307.500	211.719	80.015	19.993	100.423	20.181	2.706
308.000	211.941	80.018	19.992	100.426	20.181	2.649
308.500	212.197	80.009	19.992	100.437	20.181	2.721
309.000	212.459	79.982	19.977	100.440	20.180	2.766
309.500	212.714	80.000	19.985	100.420	20.179	2.824
310.000	212.975	79.991	19.981	100.416	20.179	2.844
310.500	213.234	80.023	19.995	100.407	20.179	2.864
311.000	213.507	80.018	19.993	100.411	20.182	2.621
311.500	213.760	80.025	19.996	100.412	20.180	2.752
312.000	214.033	79.998	19.985	100.427	20.180	2.761
312.500	214.280	80.013	19.992	100.426	20.180	2.802
313.000	214.540	80.018	19.995	100.434	20.180	2.732
313.500	214.825	80.010	19.990	100.431	20.181	2.717
314.000	215.035	80.009	19.989	100.431	20.180	2.794
314.500	215.311	80.004	19.986	100.425	20.180	2.801
315.000	215.557	80.011	19.992	100.425	20.179	2.810
315.500	215.845	80.007	19.988	100.426	20.180	2.733
316.000	216.079	80.001	19.987	100.421	20.181	2.699
316.500	216.326	80.008	19.988	100.417	20.179	2.847
317.000	216.605	80.022	19.997	100.418	20.180	2.744
317.500	216.842	79.998	19.985	100.426	20.180	2.754
318.000	217.134	80.014	19.992	100.420	20.179	2.875
318.500	217.366	80.009	19.989	100.423	20.178	2.895
319.000	217.637	80.008	19.990	100.422	20.180	2.749
319.500	217.904	80.019	19.995	100.421	20.179	2.848
320.000	218.145	80.013	19.988	100.420	20.179	2.839
320.500	218.431	80.005	19.986	100.424	20.180	2.800
321.000	218.675	80.004	19.986	100.417	20.179	2.822
321.500	218.934	80.011	19.991	100.416	20.180	2.735
322.000	219.170	80.013	19.992	100.417	20.178	2.913
322.500	219.444	80.007	19.989	100.414	20.179	2.810
323.000	219.695	79.993	19.982	100.413	20.181	2.650
323.500	219.937	80.013	19.992	100.411	20.179	2.828
324.000	220.232	80.008	19.990	100.418	20.179	2.842
324.500	220.452	80.014	19.991	100.417	20.179	2.876
325.000	220.751	80.018	19.994	100.418	20.179	2.835
325.500	220.978	80.017	19.992	100.421	20.179	2.816
326.000	221.247	80.015	19.993	100.428	20.179	2.840
326.500	221.503	80.005	19.990	100.427	20.179	2.859
327.000	221.775	80.008	19.992	100.425	20.179	2.877
327.500	222.031	80.009	19.989	100.424	20.179	2.832
328.000	222.266	80.003	19.988	100.421	20.179	2.844
328.500	222.548	80.009	19.989	100.420	20.177	2.968
329.000	222.786	80.008	19.990	100.416	20.178	2.961
329.500	223.057	80.008	19.988	100.416	20.178	2.895
330.000	223.300	79.995	19.982	100.413	20.177	3.014
330.500	223.567	80.009	19.990	100.409	20.178	2.896
331.000	223.824	80.003	19.987	100.410	20.177	2.986
331.500	224.060	80.013	19.991	100.410	20.178	2.921
332.000	224.358	80.020	19.992	100.413	20.177	3.012
332.500	224.576	80.009	19.990	100.414	20.177	3.007
333.000	224.845	80.014	19.991	100.419	20.177	3.025
333.500	225.110	80.000	19.985	100.420	20.175	3.141
334.000	225.355	80.017	19.993	100.414	20.178	2.909
334.500	225.627	80.005	19.989	100.415	20.178	2.891
335.000	225.856	80.017	19.993	100.413	20.178	2.915
335.500	226.136	80.007	19.989	100.416	20.177	2.964
336.000	226.373	80.006	19.990	100.415	20.178	2.937
336.500	226.630	80.011	19.989	100.418	20.177	3.018
337.000	226.877	80.008	19.990	100.413	20.176	3.071
337.500	227.164	80.011	19.991	100.416	20.176	3.088
338.000	227.418	80.010	19.990	100.413	20.176	3.076
338.500	227.626	80.006	19.988	100.409	20.177	2.973
339.000	227.923	80.009	19.990	100.412	20.177	3.013
339.500	228.167	80.008	19.988	100.413	20.177	3.028
340.000	228.425	80.005	19.988	100.412	20.177	3.032
340.500	228.690	80.008	19.989	100.408	20.175	3.142
341.000	228.934	80.001	19.987	100.411	20.176	3.077
341.500	229.194	80.019	19.993	100.411	20.176	3.050
342.000	229.434	80.004	19.987	100.417	20.176	3.077
342.500	229.717	80.003	19.986	100.417	20.176	3.078
343.000	229.959	80.013	19.991	100.416	20.174	3.210
343.500	230.215	80.002	19.987	100.417	20.175	3.124
344.000	230.459	79.998	19.984	100.416	20.173	3.294
344.500	230.697	80.006	19.989	100.404	20.175	3.156
345.000	230.974	80.002	19.988	100.405	20.175	3.180
345.501	231.215	80.021	19.993	100.408	20.173	3.280
346.000	231.510	79.980	19.980	100.411	20.174	3.263
346.500	231.733	80.016	19.991	100.408	20.175	3.154
347.000	231.985	80.022	19.995	100.419	20.177	3.039
347.500	232.253	80.002	19.989	100.425	20.175	3.148
348.000	232.491	80.017	19.992	100.428	20.176	3.116
348.501	232.755	79.984	19.976	100.427	20.174	3.217
349.000	232.992	80.020	19.992	100.423	20.176	3.117
349.500	233.281	79.992	19.983	100.422	20.175	3.172
350.000	233.507	80.007	19.987	100.412	20.174	3.231
350.500	233.782	80.009	19.992	100.409	20.173	3.309
351.000	234.014	80.004	19.987	100.408	20.173	3.307
351.500	234.270	80.007	19.987	100.417	20.174	3.278
352.000	234.533	80.019	19.992	100.415	20.175	3.155
352.500	234.765	80.006	19.988	100.423	20.174	3.261
353.000	235.044	79.997	19.986	100.424	20.173	3.286
353.500	235.273	80.014	19.992	100.421	20.173	3.311
354.000	235.556	80.004	19.988	100.427	20.173	3.311
354.500	235.788	80.007	19.983	100.426	20.173	3.306
355.000	236.040	80.000	19.986	100.419	20.172	3.386
355.500	236.282	80.010	19.991	100.419	20.172	3.364
356.000	236.528	80.012	19.988	100.422	20.174	3.272
356.500	236.800	80.015	19.986	100.421	20.173	3.294
357.000	237.043	80.006	19.989	100.420	20.173	3.311
357.500	237.310	80.008	19.984	100.423	20.172	3.433
358.000	237.541	80.002	19.991	100.419	20.171	3.486
358.500	237.795	80.001	19.989	100.418	20.171	3.459
359.000	238.046	80.012	19.989	100.418	20.172	3.436
359.500	238.294	80.004	19.989	100.419	20.172	3.427
360.000	238.567	80.006	19.990	100.420	20.171	3.481
360.500	238.796	80.012	19.991	100.425	20.172	3.434
361.000	239.052	80.009	19.987	100.427	20.172	3.425
361.500	239.311	80.013	19.992	100.427	20.171	3.442
362.000	239.572	80.011	19.991	100.431	20.171	3.501
362.500	239.829	80.006	19.989	100.434	20.172	3.392
363.000	240.051	80.006	19.987	100.435	20.171	3.493
363.500	240.324	80.010	19.990	100.430	20.170	3.566
364.000	240.559	80.001	19.987	100.432	20.171	3.496
364.500	240.807	80.006	19.988	100.428	20.170	3.536
365.000	241.059	80.009	19.989	100.423	20.170	3.549
365.500	241.326	80.013	19.988	100.424	20.170	3.590
366.000	241.574	80.000	19.984	100.425	20.170	3.558
366.500	241.808	80.006	19.990	100.415	20.170	3.578
367.000	242.086	80.013	19.995	100.417	20.168	3.725
367.500	242.304	80.011	19.992	100.423	20.168	3.722
368.000	242.582	80.010	19.986	100.424	20.169	3.674
368.500	242.821	80.006	19.982	100.423	20.167	3.800
369.000	243.061	80.018	19.994	100.425	20.167	3.785
369.500	243.315	80.018	19.987	100.430	20.166	3.883
370.000	243.553	79.998	19.985	100.421	20.166	3.878
370.500	243.841	80.016	19.995	100.412	20.165	3.973
371.000	244.050	80.014	19.986	100.412	20.166	3.880
371.500	244.307	80.007	19.991	100.411	20.165	3.948
372.000	244.557	80.011	19.990	100.409	20.165	3.936
372.500	244.812	79.997	19.987	100.412	20.164	4.046
373.000	245.071	80.004	19.986	100.414	20.164	4.004
373.500	245.299	80.023	19.989	100.411	20.165	3.920
374.000	245.575	80.010	19.997	100.415	20.165	3.948
374.500	245.807	80.013	19.987	100.415	20.163	4.080
375.000	246.072	80.010	19.987	100.415	20.164	4.010
375.500	246.318	80.004	19.989	100.416	20.164	4.009
376.000	246.556	80.003	19.984	100.415	20.162	4.191
376.500	246.821	80.008	19.988	100.410	20.162	4.180
377.000	247.048	80.003	19.988	100.402	20.162	4.206
377.500	247.320	80.003	19.987	100.405	20.162	4.156
378.000	247.542	80.014	19.992	100.403	20.162	4.189
378.500	247.793	80.006	19.988	100.408	20.160	4.348
379.000	248.044	80.011	19.989	100.413	20.159	4.416
379.500	248.295	80.007	19.988	100.416	20.160	4.357
380.000	248.575	80.003	19.986	100.415	20.159	4.408
380.500	248.797	80.014	19.989	100.417	20.159	4.419
381.000	249.060	80.007	19.988	100.418	20.159	4.399
381.500	249.294	80.006	19.987	100.418	20.159	4.399
382.000	249.562	80.015	19.988	100.418	20.159	4.407
382.500	249.801	80.009	19.983	100.416	20.159	4.435
383.000	250.052	80.012	19.990	100.409	20.159	4.441
383.500	250.293	80.014	19.990	100.408	20.158	4.549
384.000	250.534	80.001	19.986	100.410	20.158	4.545
384.500	250.817	80.014	19.992	100.410	20.157	4.619
385.000	251.034	80.008	19.988	100.415	20.157	4.621
385.500	251.306	80.007	19.987	100.423	20.156	4.702
386.000	251.546	80.002	19.987	100.421	20.155	4.718
386.500	251.791	80.009	19.989	100.418	20.156	4.692
387.000	252.051	80.011	19.989	100.418	20.155	4.766
387.500	252.274	80.006	19.985	100.414	20.154	4.796
388.000	252.577	80.012	19.992	100.413	20.155	4.732
388.500	252.794	80.018	19.991	100.416	20.154	4.805
389.000	253.053	80.002	19.990	100.418	20.154	4.869
389.500	253.289	80.009	19.987	100.418	20.152	4.992
390.000	253.543	80.010	19.989	100.416	20.152	4.989
390.500	253.804	80.017	19.992	100.417	20.152	4.999
391.000	254.035	80.007	19.987	100.419	20.152	5.020
391.500	254.301	80.017	19.989	100.418	20.151	5.104
392.000	254.522	80.007	19.983	100.416	20.152	4.967
392.500	254.801	80.004	19.990	100.415	20.149	5.230
393.000	255.028	80.018	19.992	100.416	20.151	5.083
393.500	255.300	80.010	19.990	100.415	20.149	5.236
394.000	255.551	80.007	19.984	100.416	20.150	5.135
394.500	255.784	80.013	19.992	100.411	20.148	5.284
395.000	256.069	80.004	19.989	100.417	20.147	5.356
395.500	256.292	80.007	19.987	100.411	20.147	5.385
396.000	256.556	80.002	19.988	100.406	20.145	5.517
396.500	256.802	80.017	19.992	100.401	20.145	5.575
397.000	257.036	80.004	19.990	100.410	20.146	5.503
397.500	257.285	80.008	19.990	100.407	20.144	5.630
398.000	257.536	80.008	19.989	100.412	20.144	5.619
398.500	257.806	79.994	19.985	100.416	20.144	5.599
399.000	258.023	80.011	19.991	100.415	20.144	5.660
399.500	258.299	80.009	19.990	100.413	20.143	5.712
400.000	258.551	80.007	19.989	100.415	20.143	5.720
400.500	258.781	80.008	19.984	100.416	20.141	5.838
401.000	259.040	80.002	19.993	100.414	20.141	5.871
401.500	259.261	80.004	19.989	100.421	20.141	5.889
402.000	259.558	80.004	19.990	100.423	20.140	5.959
402.500	259.786	80.012	19.993	100.424	20.140	5.969
403.000	260.027	80.017	19.989	100.426	20.139	6.027
403.500	260.278	80.012	19.993	100.428	20.139	6.032
404.000	260.530	80.010	19.989	100.428	20.139	6.043
404.500	260.788	80.009	19.989	100.426	20.138	6.109
405.000	261.014	80.009	19.995	100.425	20.137	6.205
405.500	261.313	80.005	19.991	100.426	20.135	6.322
406.000	261.525	80.013	19.989	100.426	20.137	6.201
406.500	261.778	80.009	19.990	100.425	20.136	6.271
407.000	262.028	80.004	19.986	100.428	20.134	6.435
407.500	262.276	79.995	19.983	100.425	20.135	6.350
408.000	262.522	80.007	19.983	100.415	20.134	6.424
408.500	262.768	80.006	19.989	100.408	20.132	6.587
409.000	263.023	80.008	19.984	100.406	20.132	6.564
409.500	263.265	80.002	19.987	100.397	20.132	6.554
410.000	263.535	80.004	19.987	100.396	20.133	6.540
410.500	263.782	80.009	19.992	100.398	20.130	6.707
411.000	264.023	80.013	19.992	100.402	20.130	6.731
411.500	264.270	80.005	19.992	100.401	20.131	6.672
412.000	264.509	80.001	19.987	100.411	20.130	6.764
412.500	264.784	80.004	19.988	100.414	20.128	6.920
413.000	265.006	80.009	19.992	100.414	20.127	6.996
413.500	265.268	80.011	19.986	100.419	20.126	7.026
414.000	265.516	80.014	19.991	100.416	20.124	7.178
414.500	265.756	80.008	19.985	100.417	20.125	7.140
415.000	266.021	80.005	19.986	100.414	20.124	7.204
415.500	266.245	80.011	19.988	100.415	20.124	7.204
416.000	266.539	80.011	19.990	100.412	20.123	7.304
416.500	266.769	80.016	19.991	100.417	20.122	7.404
417.001	267.009	80.001	19.983	100.417	20.120	7.550
417.500	267.251	80.002	19.988	100.417	20.120	7.520
418.000	267.513	80.012	19.993	100.420	20.120	7.538
418.500	267.765	80.003	19.987	100.426	20.119	7.651
419.000	268.010	80.012	19.987	100.425	20.118	7.703
419.500	268.270	79.997	19.989	100.423	20.117	7.783
420.000	268.516	80.013	19.992	100.430	20.116	7.842
420.500	268.775	80.009	19.989	100.434	20.116	7.838
421.000	269.003	80.015	19.991	100.431	20.114	7.993
421.500	269.252	80.011	19.992	100.435	20.113	8.055
422.000	269.519	80.005	19.987	100.435	20.113	8.098
422.500	269.738	80.011	19.982	100.430	20.112	8.198
423.000	270.024	80.016	19.994	100.425	20.112	8.132
423.500	270.251	80.006	19.992	100.428	20.111	8.277
424.000	270.519	80.001	19.994	100.428	20.111	8.253
424.500	270.766	80.014	19.992	100.430	20.109	8.418
425.000	271.014	80.002	19.990	100.435	20.109	8.408
425.500	271.285	79.987	19.981	100.437	20.108	8.517
426.000	271.486	80.031	20.001	100.427	20.108	8.463
426.500	271.786	79.988	19.981	100.433	20.106	8.617
427.000	272.015	80.004	19.984	100.422	20.105	8.760
427.500	272.269	80.003	19.984	100.415	20.104	8.824
428.000	272.524	80.015	19.993	100.409	20.103	8.921
428.500	272.762	79.980	19.982	100.418	20.103	8.881
429.000	273.025	80.013	19.989	100.403	20.101	9.042
429.500	273.247	80.007	19.989	100.411	20.100	9.157
430.000	273.527	79.987	19.983	100.416	20.099	9.208
430.500	273.760	79.996	19.984	100.416	20.099	9.201
431.000	274.027	79.989	19.976	100.408	20.098	9.280
431.500	274.277	79.995	19.979	100.402	20.097	9.349
432.000	274.537	80.019	19.992	100.393	20.096	9.453
432.500	274.787	80.018	19.998	100.394	20.094	9.587
433.000	275.030	80.035	20.003	100.407	20.094	9.585
433.500	275.300	80.006	19.986	100.423	20.093	9.665
434.000	275.531	80.030	20.005	100.432	20.092	9.797
434.500	275.783	80.033	20.001	100.459	20.091	9.804
435.000	276.037	79.988	19.978	100.471	20.090	9.894
435.500	276.287	80.028	20.001	100.457	20.089	10.009
436.000	276.538	80.000	19.986	100.457	20.088	10.069
436.500	276.775	79.992	19.988	100.461	20.086	10.213
437.000	277.059	80.015	19.993	100.445	20.086	10.270
437.500	277.290	80.011	19.990	100.437	20.085	10.341
438.000	277.554	80.000	19.986	100.447	20.085	10.347
438.500	277.803	79.980	19.976	100.434	20.083	10.506
439.000	278.049	80.007	19.988	100.422	20.081	10.677
439.500	278.313	79.996	19.986	100.418	20.080	10.715
440.000	278.539	80.003	19.986	100.412	20.079	10.806
440.500	278.822	80.002	19.986	100.407	20.077	10.931
441.000	279.043	80.015	19.993	100.409	20.077	10.927
441.500	279.307	80.000	19.987	100.425	20.075	11.154
442.000	279.548	80.004	19.985	100.423	20.074	11.202
442.500	279.813	80.016	19.992	100.429	20.073	11.285
443.000	280.079	80.004	19.986	100.435	20.071	11.431
443.500	280.307	80.022	19.994	100.436	20.068	11.640
444.000	280.587	80.007	19.987	100.439	20.069	11.572
444.500	280.823	80.010	19.990	100.445	20.066	11.835
445.000	281.073	80.007	19.989	100.444	20.067	11.784
445.500	281.330	80.015	19.992	100.446	20.065	11.944
446.000	281.576	80.027	19.996	100.453	20.062	12.123
446.500	281.851	80.001	19.988	100.450	20.063	12.074
447.000	282.068	80.028	19.996	100.447	20.060	12.340
447.500	282.369	80.013	19.991	100.455	20.057	12.525
448.000	282.600	80.018	19.993	100.454	20.058	12.451
448.500	282.853	79.992	19.986	100.457	20.058	12.503
449.000	283.111	80.006	19.983	100.453	20.056	12.639
449.500	283.350	80.007	19.998	100.453	20.052	12.929
450.000	283.625	79.983	19.979	100.456	20.052	12.920
450.500	283.865	79.990	19.983	100.445	20.051	12.995
451.001	284.134	80.002	19.988	100.430	20.050	13.116
451.500	284.357	80.007	19.986	100.429	20.049	13.194
452.000	284.647	80.026	19.998	100.426	20.045	13.486
452.500	284.891	80.008	19.989	100.421	20.045	13.540
453.000	285.130	80.001	19.984	100.433	20.042	13.709
453.500	285.398	80.022	19.996	100.438	20.043	13.640
454.000	285.625	80.002	19.980	100.449	20.040	13.878
454.500	285.926	79.986	19.979	100.448	20.039	13.975
455.000	286.138	80.029	19.998	100.437	20.037	14.130
455.500	286.413	79.998	19.984	100.444	20.037	14.152
456.000	286.646	80.013	19.992	100.447	20.037	14.116
456.500	286.910	80.003	19.986	100.446	20.034	14.379
457.000	287.163	80.008	19.990	100.455	20.033	14.433
457.500	287.390	80.021	19.997	100.463	20.032	14.554
458.000	287.674	80.028	19.996	100.463	20.027	14.923
458.500	287.898	80.003	19.987	100.474	20.029	14.790
459.000	288.163	80.008	19.987	100.469	20.026	15.030
459.500	288.418	79.977	19.976	100.471	20.024	15.167
460.000	288.671	80.014	19.982	100.460	20.025	15.131
460.500	288.949	79.979	19.977	100.449	20.022	15.367
461.000	289.160	79.978	19.976	100.434	20.020	15.486
461.500	289.445	80.007	19.992	100.425	20.019	15.609
462.000	289.660	79.998	19.985	100.428	20.016	15.775
462.500	289.932	80.006	19.990	100.438	20.017	15.766
463.000	290.177	80.039	20.004	100.446	20.012	16.091
463.500	290.420	79.986	19.980	100.468	20.011	16.183
464.000	290.697	79.995	19.986	100.473	20.011	16.185
464.501	290.936	80.009	19.987	100.467	20.009	16.377
465.000	291.208	80.008	19.994	100.467	20.006	16.570
465.500	291.436	80.005	19.990	100.469	20.004	16.747
466.000	291.700	79.981	19.976	100.457	20.004	16.759
466.500	291.934	79.976	19.977	100.454	20.001	16.982
467.000	292.183	80.010	19.993	100.445	19.999	17.175
467.500	292.443	79.993	19.982	100.448	19.997	17.331
468.000	292.689	80.024	19.995	100.432	19.996	17.412
468.500	292.970	80.010	19.991	100.431	19.994	17.556
469.000	293.201	79.987	19.979	100.438	19.991	17.805
469.500	293.440	80.026	20.002	100.438	19.990	17.896
470.000	293.700	80.009	19.989	100.449	19.987	18.134
470.500	293.969	80.014	19.994	100.458	19.986	18.167
471.000	294.222	79.992	19.983	100.462	19.982	18.500
471.500	294.466	80.031	19.998	100.461	19.981	18.618
472.000	294.738	79.995	19.985	100.482	19.978	18.829
472.500	294.956	79.993	19.982	100.466	19.975	19.099
473.000	295.233	79.986	19.978	100.463	19.974	19.151
473.500	295.477	79.999	19.986	100.450	19.972	19.315
474.000	295.696	80.011	19.990	100.453	19.971	19.418
474.500	295.978	80.040	20.003	100.444	19.968	19.603
475.000	296.205	80.034	20.000	100.461	19.967	19.691
475.500	296.488	80.030	19.998	100.475	19.964	19.922
476.000	296.723	80.043	20.007	100.494	19.963	20.030
476.500	296.990	80.040	19.999	100.511	19.962	20.114
477.000	297.227	80.023	19.991	100.521	19.960	20.272
477.500	297.490	79.992	19.980	100.508	19.957	20.506
478.000	297.744	80.000	19.988	100.491	19.954	20.726
478.500	297.972	80.000	19.985	100.482	19.953	20.844
479.000	298.257	79.993	19.983	100.464	19.952	20.910
479.500	298.497	80.010	19.987	100.450	19.951	20.995
480.000	298.757	80.022	19.993	100.448	19.947	21.262
480.500	299.014	79.999	19.991	100.457	19.946	21.410
481.000	299.265	80.013	19.987	100.458	19.942	21.668
481.500	299.509	80.011	19.988	100.457	19.940	21.843
482.000	299.748	80.006	19.990	100.460	19.939	21.953
482.500	300.025	79.998	19.986	100.462	19.936	22.156
483.000	300.268	80.005	19.989	100.462	19.934	22.341
483.500	300.545	80.001	19.987	100.460	19.930	22.623
484.000	300.780	79.996	19.990	100.462	19.930	22.663
484.500	301.025	79.998	19.987	100.466	19.927	22.866
485.000	301.280	80.007	19.988	100.463	19.926	22.976
485.500	301.511	80.004	19.989	100.468	19.923	23.208
486.000	301.819	80.007	19.986	100.473	19.920	23.418
486.500	302.028	80.005	19.990	100.472	19.920	23.482
487.000	302.302	79.995	19.984	100.471	19.918	23.623
487.500	302.555	80.002	19.988	100.470	19.916	23.734
488.000	302.801	80.010	19.991	100.465	19.913	23.998
488.500	303.067	80.011	19.991	100.463	19.911	24.162
489.000	303.319	80.006	19.991	100.473	19.909	24.340
489.500	303.578	80.005	19.985	100.481	19.906	24.545
490.000	303.815	79.998	19.986	100.483	19.904	24.725
490.500	304.067	80.007	19.992	100.487	19.901	25.009
491.000	304.323	80.012	19.985	100.488	19.899	25.134
491.500	304.584	80.014	19.991	100.482	19.896	25.404
492.000	304.838	80.017	19.990	100.478	19.894	25.500
492.500	305.076	80.007	19.991	100.486	19.892	25.676
493.000	305.357	80.014	19.987	100.493	19.888	25.968
493.500	305.577	80.017	19.994	100.495	19.887	26.111
494.000	305.859	80.011	19.990	100.504	19.884	26.348
494.500	306.100	80.009	19.990	100.506	19.883	26.421
495.000	306.364	80.005	19.985	100.508	19.880	26.680
495.500	306.622	80.015	19.990	100.501	19.878	26.835
496.000	306.845	80.010	19.985	100.504	19.875	27.028
496.500	307.135	80.017	19.991	100.499	19.873	27.229
497.000	307.354	80.014	19.989	100.495	19.870	27.435
497.500	307.629	80.014	19.992	100.490	19.869	27.480
498.000	307.875	80.010	19.993	100.495	19.866	27.772
498.500	308.139	80.007	19.989	100.495	19.864	27.907
499.000	308.397	80.011	19.992	100.497	19.861	28.150
499.500	308.612	80.011	19.988	100.503	19.858	28.403
500.000	308.923	80.001	19.987	100.505	19.856	28.539
500.500	309.141	80.011	19.991	100.502	19.854	28.713
501.000	309.405	80.008	19.988	100.500	19.850	29.011
501.500	309.667	80.011	19.987	100.499	19.849	29.081
502.000	309.912	80.010	19.993	100.495	19.845	29.444
502.500	310.166	80.014	19.989	100.498	19.843	29.606
503.000	310.387	80.010	19.986	100.499	19.841	29.776
503.500	310.683	80.007	19.990	100.497	19.837	30.028
504.000	310.909	80.010	19.991	100.498	19.835	30.233
504.500	311.186	80.015	19.992	100.500	19.832	30.432
505.000	311.424	80.013	19.990	100.502	19.829	30.684
505.500	311.686	80.006	19.991	100.503	19.825	31.022
506.000	311.953	80.008	19.990	100.509	19.822	31.227
506.500	312.187	80.013	19.991	100.512	19.820	31.383
507.000	312.466	79.994	19.986	100.511	19.819	31.473
507.500	312.688	80.019	19.990	100.506	19.816	31.770
508.000	312.977	80.011	19.984	100.506	19.815	31.827
508.500	313.223	80.021	19.987	100.499	19.811	32.133
509.000	313.456	79.999	19.991	100.497	19.807	32.474
509.500	313.715	80.004	19.989	100.498	19.805	32.595
510.000	313.946	80.013	19.993	100.502	19.802	32.837
510.500	314.225	80.017	19.988	100.507	19.799	33.125
511.000	314.459	80.010	19.991	100.510	19.796	33.371
511.500	314.743	80.020	19.994	100.513	19.793	33.554
512.000	314.959	80.019	19.993	100.514	19.792	33.665
512.500	315.226	79.998	19.983	100.517	19.789	33.873
513.000	315.499	80.012	19.994	100.510	19.787	34.044
513.500	315.724	80.018	19.992	100.518	19.783	34.381
514.000	316.007	79.993	19.983	100.519	19.781	34.538
514.500	316.241	80.008	19.993	100.516	19.778	34.738
515.000	316.515	80.013	19.992	100.521	19.774	35.071
515.500	316.743	80.001	19.987	100.530	19.772	35.249
516.000	316.999	80.015	19.990	100.528	19.768	35.594
516.500	317.246	80.006	19.993	100.532	19.764	35.889
517.000	317.504	80.016	19.992	100.542	19.761	36.084
517.500	317.789	80.006	19.987	100.542	19.760	36.179
518.000	318.016	80.000	19.990	100.538	19.757	36.404
518.500	318.280	80.004	19.989	100.539	19.754	36.646
519.000	318.527	80.014	19.991	100.536	19.751	36.922
519.500	318.776	80.012	19.992	100.535	19.750	37.018
520.000	319.034	80.017	19.993	100.536	19.746	37.312
520.500	319.262	80.011	19.987	100.540	19.742	37.658
521.000	319.526	80.003	19.990	100.539	19.739	37.904
521.500	319.770	80.004	19.984	100.542	19.737	38.027
522.000	320.028	79.993	19.981	100.536	19.733	38.339
522.500	320.266	80.010	19.989	100.530	19.731	38.562
523.000	320.524	80.011	19.994	100.529	19.726	38.894
523.500	320.772	80.001	19.990	100.536	19.723	39.162
524.000	321.001	79.995	19.987	100.540	19.722	39.262
524.500	321.278	80.009	19.992	100.543	19.718	39.532
525.000	321.525	80.010	19.992	100.551	19.714	39.896
525.500	321.790	80.009	19.994	100.559	19.710	40.168
526.000	322.040	80.013	19.991	100.560	19.708	40.320
526.500	322.270	80.018	19.992	100.561	19.705	40.625
527.000	322.516	80.013	19.990	100.569	19.702	40.826
527.500	322.745	80.017	19.991	100.570	19.699	41.092
528.000	323.052	80.008	19.990	100.569	19.696	41.332
528.500	323.264	80.012	19.990	100.573	19.692	41.596
529.000	323.539	80.011	19.988	100.575	19.687	42.052
529.500	323.781	80.009	19.990	100.573	19.685	42.203
530.000	324.027	80.014	19.986	100.574	19.681	42.492
530.500	324.289	80.012	19.990	100.572	19.678	42.772
531.000	324.518	80.010	19.989	100.571	19.673	43.119
531.500	324.805	80.009	19.988	100.570	19.670	43.408
532.000	325.035	80.000	19.988	100.570	19.669	43.498
532.500	325.289	80.015	19.988	100.569	19.663	43.922
533.000	325.521	80.009	19.985	100.572	19.660	44.227
533.500	325.766	80.008	19.992	100.569	19.657	44.437
534.000	326.040	80.012	19.987	100.569	19.654	44.666
534.500	326.259	80.012	19.993	100.570	19.650	44.956
535.000	326.545	80.010	19.991	100.575	19.647	45.187
535.500	326.756	80.017	19.994	100.582	19.643	45.580
536.000	327.032	80.005	19.993	100.593	19.639	45.842
536.500	327.271	80.012	19.990	100.596	19.638	45.983
537.000	327.519	80.012	19.991	100.601	19.632	46.408
537.500	327.792	80.006	19.994	100.600	19.630	46.593
538.000	328.013	80.017	19.992	100.599	19.625	47.000
538.500	328.286	80.008	19.988	100.597	19.622	47.256
539.000	328.518	80.019	19.993	100.594	19.617	47.601
539.500	328.773	80.011	19.991	100.596	19.614	47.900
540.000	329.021	80.001	19.984	100.598	19.611	48.115
540.500	329.265	80.008	19.989	100.594	19.607	48.460
541.000	329.508	80.016	19.995	100.597	19.604	48.649
541.500	329.745	80.011	19.984	100.607	19.599	49.047
542.000	330.039	79.999	19.983	100.606	19.596	49.267
542.500	330.257	80.002	19.986	100.601	19.592	49.619
543.000	330.510	80.005	19.987	100.605	19.588	49.966
543.500	330.758	80.006	19.986	100.603	19.584	50.220
544.000	331.002	80.019	19.994	100.598	19.580	50.580
544.500	331.260	80.026	19.998	100.605	19.577	50.801
545.000	331.488	80.006	19.988	100.620	19.572	51.208
545.500	331.756	80.019	19.996	100.622	19.569	51.480
546.000	331.993	80.028	19.993	100.629	19.565	51.773
546.500	332.262	80.018	19.991	100.632	19.560	52.165
547.000	332.503	80.018	19.994	100.630	19.555	52.596
547.500	332.753	79.995	19.986	100.627	19.551	52.886
548.000	333.006	79.995	19.984	100.629	19.548	53.141
548.500	333.235	80.015	19.992	100.622	19.541	53.646
549.000	333.498	80.009	19.990	100.623	19.538	53.884
549.500	333.714	80.015	19.992	100.622	19.534	54.236
550.000	334.000	80.012	19.991	100.620	19.529	54.635
550.500	334.245	80.020	19.994	100.621	19.523	55.108
551.000	334.479	80.005	19.988	100.629	19.519	55.422
551.500	334.762	80.014	19.990	100.630	19.517	55.625
552.000	334.963	80.014	19.991	100.629	19.512	55.970
552.500	335.243	80.014	19.991	100.629	19.507	56.424
553.000	335.483	80.012	19.991	100.629	19.504	56.671
553.500	335.722	80.010	19.989	100.625	19.498	57.085
554.000	335.973	80.007	19.986	100.624	19.494	57.408
554.501	336.218	80.005	19.989	100.620	19.488	57.880
555.000	336.470	80.012	19.990	100.618	19.485	58.190
555.500	336.707	80.025	19.991	100.619	19.480	58.546
556.000	336.961	80.002	19.986	100.619	19.476	58.864
556.500	337.199	80.014	19.989	100.618	19.471	59.314
557.000	337.456	80.015	19.991	100.624	19.466	59.685
557.500	337.718	80.010	19.988	100.628	19.460	60.127
558.001	337.941	80.007	19.987	100.631	19.455	60.545
558.500	338.219	80.006	19.988	100.635	19.449	61.039
559.000	338.439	80.001	19.992	100.639	19.447	61.175
559.500	338.716	80.010	19.986	100.643	19.441	61.642
560.000	338.944	80.010	19.992	100.642	19.437	62.019
560.500	339.197	80.009	19.987	100.642	19.430	62.589
561.000	339.448	79.998	19.988	100.641	19.426	62.882
561.500	339.671	80.007	19.990	100.642	19.420	63.366
562.000	339.952	80.013	19.990	100.646	19.417	63.588
562.500	340.166	80.011	19.991	100.651	19.412	63.999
563.000	340.444	80.006	19.991	100.654	19.407	64.413
563.500	340.663	80.012	19.992	100.659	19.402	64.775
564.000	340.928	80.029	19.997	100.662	19.395	65.314
564.500	341.175	79.999	19.985	100.662	19.389	65.786
565.000	341.435	80.029	19.999	100.654	19.387	65.992
565.500	341.680	80.017	19.988	100.661	19.381	66.458
566.000	341.905	79.981	19.980	100.660	19.375	66.960
566.500	342.178	79.999	19.988	100.653	19.370	67.344
567.000	342.417	79.994	19.985	100.649	19.365	67.728
567.500	342.675	80.038	20.002	100.653	19.360	68.172
568.000	342.907	80.003	19.986	100.656	19.355	68.575
568.500	343.146	80.020	19.994	100.653	19.349	69.023
569.000	343.409	79.984	19.977	100.663	19.344	69.440
569.500	343.638	79.987	19.980	100.657	19.338	69.900
570.000	343.916	80.019	19.995	100.658	19.333	70.326
570.500	344.151	80.000	19.987	100.653	19.328	70.693
571.000	344.401	80.005	19.991	100.660	19.322	71.145
571.500	344.658	79.993	19.987	100.660	19.317	71.588
572.000	344.894	80.013	19.989	100.667	19.312	72.002
572.500	345.156	80.015	19.992	100.671	19.306	72.426
573.000	345.375	80.032	20.000	100.671	19.301	72.834
573.500	345.645	79.998	19.987	100.683	19.296	73.250
574.000	345.877	80.008	19.985	100.686	19.290	73.747
574.500	346.150	80.003	19.987	100.691	19.285	74.163
575.000	346.383	80.003	19.992	100.695	19.280	74.532
575.500	346.615	80.008	19.992	100.698	19.275	74.948
576.000	346.872	80.000	19.988	100.691	19.271	75.286
576.501	347.114	80.013	19.991	100.691	19.263	75.863
577.000	347.396	80.016	19.998	100.693	19.258	76.318
577.500	347.626	80.005	19.991	100.701	19.254	76.626
578.000	347.892	80.030	19.998	100.700	19.248	77.082
578.500	348.111	80.013	19.991	100.703	19.245	77.359
579.000	348.365	80.011	19.992	100.707	19.238	77.868
579.500	348.608	80.010	19.993	100.708	19.233	78.335
580.000	348.854	80.005	19.987	100.705	19.226	78.827
580.500	349.126	80.002	19.989	100.702	19.221	79.259
581.000	349.353	80.002	19.988	100.697	19.216	79.661
581.500	349.601	80.002	19.985	100.693	19.212	79.969
582.000	349.851	80.009	19.991	100.687	19.208	80.298
582.500	350.091	80.032	19.999	100.686	19.202	80.793
583.000	350.360	80.014	19.991	100.695	19.196	81.265
583.500	350.602	80.024	19.996	100.697	19.191	81.643
584.000	350.867	80.000	19.988	100.703	19.185	82.120
584.500	351.108	80.023	20.000	100.706	19.183	82.299
585.000	351.342	80.005	19.992	100.715	19.178	82.706
585.500	351.595	80.018	19.996	100.711	19.172	83.129
586.001	351.831	79.997	19.986	100.714	19.167	83.555
586.500	352.101	80.010	19.988	100.708	19.163	83.861
587.000	352.338	80.008	19.993	100.708	19.160	84.138
587.500	352.596	80.018	19.994	100.702	19.155	84.518
588.000	352.834	80.006	19.991	100.706	19.150	84.863
588.500	353.094	80.010	19.994	100.701	19.146	85.198
589.000	353.329	80.013	19.990	100.706	19.141	85.609
589.500	353.570	80.005	19.997	100.705	19.136	85.993
590.000	353.828	80.008	19.992	100.710	19.134	86.206
590.500	354.061	80.018	19.991	100.707	19.129	86.588
591.000	354.346	80.000	19.988	100.708	19.124	86.970
591.500	354.580	80.012	19.993	100.704	19.121	87.172
592.000	354.832	80.002	19.986	100.710	19.118	87.445
592.500	355.081	80.004	19.988	100.700	19.115	87.662
593.000	355.306	80.005	19.990	100.695	19.111	88.046
593.500	355.559	80.004	19.989	100.692	19.109	88.209
594.000	355.802	80.014	19.991	100.691	19.105	88.528
594.500	356.067	80.012	19.988	100.688	19.103	88.649
595.000	356.291	80.000	19.985	100.689	19.100	88.858
595.500	356.553	80.005	19.992	100.688	19.099	88.995
596.000	356.804	80.012	19.993	100.694	19.095	89.262
596.500	357.065	80.004	19.984	100.698	19.093	89.465
597.000	357.299	80.020	19.995	100.692	19.091	89.605
597.500	357.541	80.021	19.993	100.697	19.088	89.822
598.000	357.812	80.015	19.992	100.704	19.088	89.848
598.500	358.043	80.011	19.989	100.701	19.086	89.934
599.000	358.305	80.004	19.988	100.697	19.084	90.114
599.500	358.537	80.010	19.990	100.702	19.083	90.242
600.000	358.795	80.001	19.992	100.698	19.082	90.318
600.500	359.056	79.998	19.987	100.698	19.081	90.389
601.000	359.287	80.011	19.995	100.694	19.080	90.424
601.500	359.562	80.011	19.985	100.695	19.081	90.399
602.000	359.779	80.010	19.983	100.684	19.081	90.341
602.500	360.039	80.013	19.994	100.673	19.081	90.395
603.000	360.291	80.008	19.985	100.670	19.081	90.360
603.500	360.532	80.005	19.986	100.665	19.081	90.346
604.000	360.803	80.006	19.986	100.655	19.082	90.230
604.500	361.021	79.999	19.988	100.656	19.084	90.105
605.000	361.277	80.011	19.993	100.660	19.084	90.118
605.500	361.522	80.006	19.996	100.656	19.084	90.064
606.000	361.783	79.999	19.985	100.660	19.088	89.799
606.500	362.020	80.017	19.992	100.659	19.090	89.636
607.000	362.275	80.006	19.989	100.661	19.093	89.395
607.500	362.543	80.001	19.986	100.660	19.094	89.269
608.000	362.755	80.006	19.987	100.650	19.096	89.103
608.500	363.046	80.012	19.980	100.640	19.100	88.791
609.000	363.282	79.992	19.986	100.628	19.103	88.538
609.500	363.529	80.014	19.991	100.618	19.106	88.315
610.000	363.788	79.995	19.987	100.614	19.111	87.947
610.500	364.013	79.995	19.987	100.611	19.114	87.675
611.000	364.281	80.019	19.994	100.606	19.118	87.364
611.500	364.520	79.999	19.987	100.617	19.124	86.878
612.000	364.775	80.020	19.996	100.619	19.128	86.550
612.500	365.004	80.019	19.990	100.623	19.133	86.170
613.000	365.276	80.007	19.988	100.625	19.140	85.599
613.500	365.522	80.002	19.984	100.621	19.144	85.321
614.000	365.756	79.999	19.977	100.610	19.151	84.753
614.500	366.037	79.997	19.984	100.594	19.157	84.273
615.000	366.242	80.027	20.000	100.578	19.164	83.689
615.500	366.542	80.016	19.994	100.579	19.170	83.188
616.000	366.766	80.010	19.991	100.582	19.177	82.652
616.500	367.023	79.984	19.980	100.584	19.186	81.912
617.000	367.260	80.033	20.002	100.585	19.192	81.440
617.500	367.513	80.032	20.003	100.599	19.201	80.746
618.000	367.778	80.018	19.995	100.597	19.209	80.089
618.500	367.997	80.016	19.994	100.594	19.217	79.471
619.000	368.281	80.009	19.991	100.591	19.225	78.784
619.500	368.499	80.005	19.987	100.591	19.235	77.971
620.000	368.763	79.998	19.988	100.570	19.245	77.230
620.500	369.009	80.010	19.988	100.553	19.252	76.632
621.000	369.253	79.999	19.988	100.544	19.262	75.867
621.500	369.522	80.023	20.000	100.535	19.273	74.937
622.000	369.763	80.014	19.994	100.543	19.283	74.117
622.500	370.025	80.007	19.989	100.548	19.291	73.475
623.000	370.256	80.018	19.994	100.545	19.301	72.716
623.500	370.542	80.019	19.995	100.546	19.313	71.718
624.000	370.773	80.004	19.986	100.546	19.324	70.859
624.500	371.012	80.013	19.991	100.528	19.335	70.017
625.000	371.275	80.006	19.991	100.521	19.344	69.266
625.500	371.529	80.001	19.989	100.520	19.357	68.239
626.001	371.800	80.017	19.990	100.513	19.367	67.473
626.500	372.036	80.002	19.985	100.507	19.379	66.525
627.000	372.282	80.005	19.992	100.504	19.391	65.567
627.500	372.528	80.000	19.989	100.498	19.401	64.758
628.000	372.781	80.007	19.987	100.491	19.414	63.672
628.500	373.034	80.013	19.990	100.482	19.425	62.821
629.000	373.268	80.009	19.988	100.474	19.438	61.780
629.500	373.543	80.016	19.995	100.471	19.449	60.919
630.000	373.783	80.021	19.994	100.470	19.460	60.037
630.500	374.034	80.002	19.991	100.471	19.474	58.934
631.000	374.277	80.009	19.989	100.477	19.484	58.117
631.500	374.543	80.014	19.991	100.477	19.497	57.118
632.000	374.801	80.002	19.988	100.478	19.508	56.242
632.500	375.022	80.001	19.987	100.471	19.520	55.225
633.000	375.307	80.023	19.994	100.463	19.532	54.321
633.500	375.541	80.009	19.992	100.460	19.543	53.385
634.000	375.801	80.000	19.986	100.460	19.557	52.333
634.500	376.051	80.026	19.997	100.455	19.566	51.612
635.000	376.293	80.002	19.987	100.461	19.581	50.414
635.500	376.561	80.004	19.988	100.460	19.591	49.621
636.000	376.801	80.003	19.986	100.453	19.603	48.607
636.500	377.068	79.994	19.987	100.445	19.615	47.684
637.000	377.293	80.021	19.994	100.438	19.625	46.900
637.500	377.555	79.990	19.982	100.435	19.639	45.820
638.000	377.800	80.009	19.991	100.427	19.648	45.104
638.500	378.050	80.010	19.990	100.428	19.661	44.015
639.000	378.320	80.017	19.992	100.430	19.671	43.220
639.500	378.542	80.003	19.988	100.435	19.683	42.319
640.000	378.832	80.011	19.993	100.425	19.694	41.443
640.500	379.051	79.968	19.972	100.431	19.705	40.500
641.000	379.312	80.030	19.999	100.414	19.716	39.638
641.500	379.560	80.006	19.990	100.419	19.724	39.018
642.000	379.815	80.034	20.001	100.415	19.736	38.095
642.500	380.069	80.004	19.989	100.424	19.745	37.323
643.000	380.288	80.020	19.994	100.421	19.757	36.396
643.500	380.601	80.000	19.987	100.440	19.768	35.545
644.000	380.817	80.019	19.995	100.424	19.776	34.842
644.500	381.063	80.009	19.991	100.423	19.785	34.188
645.000	381.316	80.003	19.989	100.415	19.793	33.510
645.500	381.548	80.004	19.987	100.411	19.804	32.632
646.000	381.812	79.996	19.984	100.399	19.812	32.031
646.500	382.048	80.010	19.992	100.399	19.821	31.270
647.000	382.324	80.006	19.990	100.399	19.830	30.598
647.500	382.545	80.017	19.994	100.393	19.838	29.976
648.000	382.825	80.011	19.994	100.397	19.846	29.312
648.500	383.067	80.010	19.983	100.402	19.853	28.756
649.000	383.302	80.001	19.983	100.397	19.862	28.008
649.500	383.571	80.001	19.985	100.388	19.869	27.508
650.000	383.806	80.011	19.993	100.381	19.878	26.797
650.500	384.071	80.008	19.988	100.377	19.886	26.122
651.000	384.308	80.010	19.991	100.370	19.891	25.716
651.500	384.565	80.004	19.987	100.376	19.899	25.079
652.000	384.819	80.006	19.986	100.377	19.906	24.575
652.500	385.064	80.009	19.987	100.377	19.914	23.930
653.000	385.332	80.004	19.988	100.372	19.918	23.584
653.500	385.537	80.014	19.989	100.371	19.927	22.889
654.000	385.812	80.014	19.992	100.368	19.932	22.436
654.500	386.044	80.016	19.993	100.373	19.938	21.979
655.000	386.310	80.013	19.992	100.379	19.944	21.506
655.500	386.537	80.010	19.989	100.383	19.950	21.048
656.000	386.800	80.012	19.990	100.385	19.958	20.445
656.500	387.068	80.003	19.986	100.386	19.962	20.080
657.000	387.286	80.010	19.990	100.379	19.967	19.693
657.500	387.577	80.001	19.986	100.377	19.972	19.285
658.000	387.799	80.006	19.988	100.372	19.979	18.756
658.500	388.056	79.996	19.985	100.372	19.984	18.370
659.000	388.315	80.009	19.988	100.366	19.989	17.959
659.500	388.541	80.006	19.987	100.369	19.996	17.423
660.000	388.821	80.003	19.986	100.365	19.999	17.143
660.500	389.044	80.005	19.986	100.363	20.003	16.790
661.000	389.324	80.013	19.991	100.360	20.007	16.512
661.500	389.545	80.010	19.990	100.365	20.012	16.134
662.000	389.792	80.019	19.993	100.362	20.017	15.745
662.500	390.041	80.007	19.988	100.363	20.021	15.408
663.000	390.287	80.002	19.986	100.366	20.024	15.160
663.500	390.546	80.007	19.989	100.362	20.028	14.819
664.000	390.759	80.018	19.994	100.359	20.032	14.541
664.500	391.057	80.005	19.988	100.362	20.034	14.350
665.000	391.279	80.013	19.990	100.356	20.039	13.982
665.500	391.532	80.002	19.986	100.357	20.044	13.606
666.000	391.786	80.017	19.993	100.357	20.045	13.495
666.500	392.044	80.015	19.992	100.358	20.048	13.274
667.000	392.308	79.999	19.986	100.356	20.051	13.025
667.500	392.523	80.008	19.988	100.354	20.052	12.915
668.000	392.783	79.997	19.983	100.349	20.056	12.636
668.500	393.013	80.010	19.990	100.344	20.058	12.482
669.000	393.260	80.014	19.991	100.339	20.061	12.240
669.500	393.521	80.014	19.996	100.338	20.062	12.124
670.000	393.776	79.996	19.982	100.348	20.064	11.977
670.500	394.022	79.995	19.983	100.344	20.067	11.769
671.000	394.265	80.007	19.989	100.343	20.068	11.647
671.500	394.542	80.005	19.981	100.342	20.072	11.381
672.000	394.747	80.011	19.989	100.335	20.073	11.246
672.500	395.015	80.001	19.986	100.327	20.076	10.998
673.000	395.257	80.014	19.989	100.331	20.077	10.985
673.501	395.500	80.007	19.988	100.336	20.079	10.806
674.000	395.763	80.000	19.984	100.336	20.080	10.724
674.500	395.975	80.001	19.987	100.340	20.081	10.645
675.000	396.264	80.007	19.989	100.341	20.082	10.543
675.501	396.480	80.009	19.992	100.342	20.085	10.315
676.000	396.746	79.989	19.982	100.348	20.089	10.005
676.500	396.977	80.034	20.000	100.344	20.089	10.005
677.000	397.220	80.015	19.991	100.358	20.089	9.981
677.500	397.479	79.989	19.981	100.363	20.091	9.860
678.000	397.704	79.998	19.985	100.358	20.091	9.822
678.500	397.982	79.993	19.982	100.349	20.092	9.733
679.000	398.210	80.005	19.988	100.352	20.093	9.644
679.500	398.480	79.986	19.978	100.339	20.095	9.488
680.000	398.707	80.005	19.988	100.328	20.095	9.485
680.500	398.947	79.996	19.985	100.333	20.097	9.345
681.000	399.202	80.026	19.997	100.333	20.095	9.521
681.500	399.438	79.993	19.982	100.342	20.097	9.329
682.000	399.705	80.004	19.987	100.336	20.099	9.173
682.500	399.932	80.003	19.988	100.343	20.099	9.222
683.000	400.200	80.020	19.991	100.342	20.100	9.137
683.500	400.434	80.036	20.002	100.347	20.100	9.087
684.000	400.674	80.000	19.985	100.351	20.102	8.944
684.500	400.942	80.010	19.991	100.354	20.102	8.984
685.000	401.170	79.991	19.980	100.355	20.102	8.925
685.500	401.431	80.000	19.985	100.352	20.102	8.949
686.000	401.661	79.999	19.984	100.347	20.103	8.877
686.500	401.926	79.993	19.981	100.332	20.104	8.809
687.000	402.167	80.010	19.989	100.331	20.104	8.787
687.500	402.398	80.021	19.996	100.331	20.105	8.726
688.000	402.647	80.010	19.990	100.342	20.105	8.758
688.500	402.884	80.013	19.991	100.346	20.105	8.722
689.000	403.153	80.004	19.986	100.352	20.105	8.686
689.500	403.379	80.022	19.996	100.354	20.105	8.701
690.000	403.634	80.003	19.986	100.358	20.106	8.624
690.500	403.866	80.019	19.994	100.349	20.105	8.694
691.000	404.118	80.001	19.986	100.352	20.106	8.609
691.500	404.372	80.009	19.990	100.348	20.107	8.567
692.000	404.576	80.007	19.990	100.350	20.106	8.623
692.500	404.871	80.001	19.986	100.346	20.108	8.454
693.000	405.102	80.005	19.987	100.347	20.109	8.431
693.500	405.359	80.009	19.990	100.342	20.108	8.514
694.000	405.613	80.009	19.989	100.348	20.107	8.579
694.500	405.833	80.014	19.991	100.349	20.109	8.431
695.000	406.097	79.991	19.984	100.349	20.110	8.295
695.500	406.308	79.997	19.984	100.349	20.111	8.252
696.000	406.588	80.011	19.991	100.346	20.110	8.321
696.500	406.811	80.012	19.991	100.344	20.111	8.265
697.000	407.076	80.008	19.990	100.344	20.111	8.246
697.500	407.309	80.011	19.990	100.342	20.111	8.216
698.000	407.555	80.014	19.991	100.343	20.112	8.200
698.500	407.814	80.007	19.989	100.348	20.110	8.315
699.000	408.035	80.009	19.989	100.347	20.111	8.273
699.500	408.303	79.995	19.984	100.345	20.112	8.197
700.000	408.536	79.993	19.982	100.340	20.112	8.197
700.501	408.776	80.011	19.989	100.334	20.112	8.192
701.000	409.034	80.007	19.987	100.334	20.111	8.244
701.500	409.258	80.007	19.989	100.333	20.111	8.209
702.000	409.544	80.025	19.996	100.333	20.111	8.246
702.500	409.753	80.019	19.994	100.343	20.111	8.223
703.000	410.022	79.981	19.976	100.353	20.110	8.292
703.500	410.254	80.049	20.006	100.341	20.111	8.210
704.000	410.498	80.022	19.993	100.357	20.112	8.188
704.500	410.753	80.026	19.997	100.362	20.111	8.218
705.000	410.986	80.015	19.991	100.362	20.111	8.280
705.500	411.232	80.010	19.989	100.359	20.109	8.376
706.000	411.465	80.008	19.987	100.372	20.110	8.292
706.500	411.735	80.014	19.990	100.357	20.112	8.145
707.000	411.967	80.022	19.994	100.354	20.112	8.168
707.500	412.219	80.012	19.991	100.353	20.111	8.227
708.000	412.464	79.993	19.983	100.353	20.111	8.248
708.500	412.713	80.000	19.984	100.347	20.113	8.109
709.000	412.962	80.017	19.991	100.344	20.112	8.175
709.500	413.171	80.003	19.985	100.344	20.112	8.144
710.000	413.469	80.019	19.994	100.329	20.112	8.168
710.500	413.691	80.027	19.997	100.329	20.112	8.163
711.000	413.952	80.036	20.000	100.339	20.111	8.254
711.500	414.191	80.048	20.005	100.351	20.114	8.007
712.000	414.406	80.000	19.985	100.361	20.112	8.130
712.500	414.678	79.996	19.981	100.366	20.113	8.078
713.000	414.899	80.031	19.998	100.356	20.114	8.032
713.500	415.188	80.048	20.004	100.356	20.115	7.916
714.000	415.392	80.018	19.993	100.359	20.114	8.016
714.500	415.657	80.017	19.993	100.350	20.115	7.958
715.000	415.898	80.012	19.989	100.358	20.113	8.122
715.500	416.137	80.018	19.993	100.368	20.114	7.970
716.000	416.409	80.020	19.992	100.366	20.114	8.027
716.500	416.633	80.004	19.985	100.361	20.115	7.910
717.000	416.898	80.020	19.994	100.354	20.116	7.851
717.500	417.134	79.995	19.982	100.356	20.115	7.893
718.000	417.368	79.988	19.979	100.349	20.115	7.930
718.500	417.627	80.002	19.985	100.339	20.116	7.842
719.000	417.873	80.007	19.986	100.330	20.117	7.784
719.500	418.118	80.001	19.985	100.331	20.116	7.827
720.000	418.359	80.009	19.991	100.323	20.116	7.812
720.500	418.617	79.994	19.980	100.329	20.116	7.862
721.000	418.841	80.028	19.997	100.330	20.116	7.886
721.500	419.096	79.998	19.985	100.338	20.117	7.795
722.000	419.353	80.017	19.993	100.336	20.117	7.729
722.500	419.574	80.025	19.996	100.343	20.119	7.594
723.000	419.830	79.984	19.977	100.348	20.119	7.640
723.500	420.043	80.004	19.986	100.346	20.119	7.633
724.000	420.344	80.010	19.990	100.338	20.119	7.637
724.500	420.560	80.034	20.000	100.342	20.117	7.756
725.000	420.838	80.006	19.990	100.347	20.118	7.696
725.500	421.054	79.994	19.982	100.341	20.119	7.617
726.000	421.308	80.004	19.987	100.346	20.118	7.660
726.500	421.568	79.995	19.982	100.348	20.118	7.689
727.000	421.808	79.969	19.970	100.342	20.120	7.527
727.500	422.070	80.003	19.985	100.318	20.119	7.596
728.000	422.301	80.017	19.992	100.315	20.119	7.567
728.500	422.546	79.985	19.978	100.321	20.121	7.417
729.000	422.783	80.005	19.988	100.313	20.122	7.372
729.500	423.036	80.052	20.004	100.318	20.120	7.495
730.000	423.289	80.002	19.988	100.347	20.121	7.483
730.500	423.516	80.023	19.995	100.348	20.122	7.397
731.000	423.793	80.014	19.990	100.350	20.123	7.327
731.500	424.024	79.981	19.976	100.359	20.122	7.360
732.000	424.269	80.008	19.988	100.349	20.122	7.359
732.500	424.508	80.008	19.990	100.331	20.122	7.393
733.000	424.752	79.999	19.985	100.331	20.123	7.327
733.500	424.997	80.007	19.989	100.323	20.124	7.223
734.000	425.234	80.033	20.000	100.322	20.125	7.137
734.500	425.499	79.997	19.985	100.342	20.124	7.194
735.000	425.722	79.994	19.984	100.342	20.123	7.266
735.500	425.997	79.997	19.984	100.336	20.124	7.219
736.000	426.224	79.998	19.987	100.336	20.125	7.135
736.500	426.474	80.011	19.990	100.333	20.124	7.171
737.000	426.726	80.011	19.991	100.324	20.125	7.137
737.500	426.960	80.005	19.990	100.330	20.125	7.108
738.000	427.230	80.027	19.998	100.337	20.126	7.084
738.500	427.453	79.987	19.980	100.348	20.128	6.912
739.000	427.705	80.013	19.990	100.342	20.126	7.073
739.500	427.962	80.007	19.988	100.343	20.127	6.949
740.000	428.215	80.007	19.988	100.335	20.127	7.009
740.500	428.450	80.025	19.997	100.330	20.127	6.997
741.000	428.684	80.015	19.991	100.326	20.128	6.882
741.500	428.960	80.005	19.990	100.332	20.126	7.020
742.000	429.198	79.993	19.983	100.329	20.128	6.865
742.500	429.451	79.978	19.976	100.330	20.127	6.984
743.000	429.693	80.018	19.992	100.323	20.128	6.914
743.500	429.929	80.012	19.991	100.319	20.129	6.836
744.000	430.188	80.008	19.988	100.322	20.128	6.873
744.500	430.409	80.025	19.999	100.323	20.130	6.764
745.000	430.685	80.008	19.990	100.335	20.129	6.779
745.500	430.908	80.014	19.990	100.347	20.130	6.725
746.000	431.168	80.006	19.987	100.349	20.127	6.940
746.500	431.409	80.008	19.991	100.347	20.130	6.771
747.000	431.652	80.010	19.992	100.348	20.129	6.777
747.500	431.894	79.989	19.979	100.343	20.131	6.656
748.000	432.126	80.010	19.992	100.334	20.130	6.738
748.500	432.417	80.014	19.993	100.330	20.129	6.780
749.000	432.642	80.018	19.993	100.332	20.131	6.630
749.500	432.895	80.026	19.997	100.330	20.131	6.673
750.000	433.138	80.018	19.993	100.334	20.130	6.712
750.500	433.381	80.023	19.996	100.342	20.129	6.837
751.000	433.642	79.988	19.981	100.350	20.131	6.659
751.500	433.863	80.000	19.985	100.344	20.132	6.591
752.000	434.117	79.994	19.984	100.339	20.132	6.600
752.500	434.372	80.015	19.992	100.328	20.132	6.553
753.000	434.627	80.004	19.986	100.329	20.133	6.502
753.500	434.877	80.012	19.991	100.320	20.133	6.498
754.000	435.113	80.021	19.992	100.322	20.133	6.475
754.500	435.370	80.003	19.990	100.327	20.134	6.381
755.000	435.597	80.013	19.992	100.328	20.134	6.386
755.500	435.857	80.003	19.987	100.323	20.135	6.374
756.000	436.090	80.019	19.995	100.320	20.135	6.370
756.500	436.360	80.000	19.986	100.323	20.134	6.379
757.000	436.595	80.003	19.987	100.315	20.136	6.222
757.500	436.830	80.013	19.990	100.314	20.134	6.413
758.000	437.099	80.011	19.991	100.318	20.135	6.312
758.500	437.337	79.999	19.985	100.320	20.134	6.437
759.000	437.596	80.008	19.989	100.310	20.135	6.307
759.500	437.815	80.015	19.993	100.315	20.137	6.211
760.000	438.073	80.013	19.991	100.319	20.136	6.285
760.500	438.319	80.015	19.992	100.319	20.138	6.126
761.000	438.564	80.009	19.991	100.322	20.136	6.247
761.500	438.833	80.005	19.989	100.333	20.138	6.106
762.000	439.061	80.013	19.991	100.333	20.138	6.133
762.500	439.316	80.002	19.990	100.333	20.137	6.169
763.000	439.538	80.003	19.987	100.336	20.138	6.134
763.500	439.807	80.005	19.989	100.331	20.139	6.043
764.000	440.036	80.003	19.988	100.329	20.139	6.009
764.500	440.293	80.015	19.994	100.329	20.139	5.997
765.000	440.555	80.008	19.990	100.331	20.140	5.968
765.500	440.771	80.016	19.993	100.326	20.140	5.909
766.000	441.068	80.013	19.992	100.333	20.140	5.902
766.500	441.269	80.004	19.988	100.336	20.141	5.880
767.000	441.535	80.016	19.993	100.334	20.141	5.862
767.500	441.769	80.008	19.989	100.332	20.141	5.862
768.000	442.018	80.012	19.993	100.332	20.142	5.763
768.500	442.287	80.015	19.994	100.327	20.142	5.750
769.000	442.505	80.012	19.992	100.323	20.142	5.801
769.500	442.770	80.014	19.993	100.321	20.142	5.789
770.000	443.010	80.008	19.990	100.321	20.142	5.795
770.500	443.265	80.011	19.990	100.316	20.143	5.684
771.000	443.503	80.009	19.990	100.312	20.145	5.559
771.500	443.740	80.008	19.991	100.312	20.143	5.704
772.000	443.995	80.002	19.987	100.314	20.143	5.663
772.500	444.224	80.010	19.991	100.312	20.144	5.657
773.000	444.512	80.006	19.990	100.318	20.143	5.713
773.500	444.719	80.006	19.989	100.323	20.144	5.634
774.000	444.976	80.003	19.987	100.325	20.144	5.644
774.500	445.228	80.011	19.990	100.327	20.145	5.565
775.000	445.466	80.003	19.988	100.328	20.147	5.407
775.500	445.729	80.005	19.990	100.323	20.145	5.525
776.000	445.951	80.008	19.990	100.322	20.146	5.464
776.500	446.214	80.007	19.989	100.321	20.146	5.463
777.000	446.441	80.015	19.992	100.316	20.147	5.419
777.500	446.701	80.002	19.987	100.319	20.146	5.458
778.000	446.944	80.012	19.991	100.317	20.146	5.463
778.500	447.192	80.012	19.992	100.317	20.149	5.259
779.000	447.445	80.015	19.991	100.322	20.148	5.290
779.500	447.666	80.014	19.993	100.324	20.147	5.421
780.000	447.961	80.004	19.987	100.323	20.148	5.331
780.500	448.186	80.007	19.989	100.328	20.148	5.266
781.000	448.427	80.007	19.989	100.328	20.149	5.201
781.500	448.668	80.007	19.988	100.320	20.148	5.326
782.000	448.911	80.004	19.987	100.316	20.149	5.243
782.500	449.172	80.006	19.990	100.308	20.148	5.278
783.000	449.395	80.012	19.991	100.307	20.149	5.205
783.500	449.669	80.001	19.987	100.308	20.149	5.189
784.000	449.888	80.010	19.990	100.308	20.150	5.127
784.500	450.143	80.010	19.990	100.316	20.149	5.203
785.000	450.382	80.008	19.990	100.326	20.149	5.204
785.500	450.633	80.010	19.990	100.330	20.149	5.214
786.000	450.881	80.019	19.994	100.331	20.151	5.079
786.500	451.119	80.012	19.993	100.338	20.150	5.137
787.000	451.395	80.009	19.989	100.336	20.151	5.076
787.500	451.625	80.009	19.991	100.334	20.151	5.101
788.000	451.870	80.016	19.992	100.330	20.151	5.061
788.500	452.107	80.004	19.987	100.333	20.151	5.058
789.000	452.336	80.008	19.991	100.329	20.152	4.948
789.500	452.612	80.012	19.991	100.331	20.153	4.895
790.000	452.832	80.016	19.994	100.332	20.152	4.984
790.500	453.111	80.005	19.988	100.337	20.154	4.843
791.000	453.345	79.999	19.986	100.333	20.154	4.806
791.500	453.605	80.010	19.990	100.329	20.154	4.864
792.000	453.835	80.011	19.990	100.328	20.155	4.732
792.500	454.063	80.016	19.994	100.328	20.154	4.798
793.000	454.331	80.007	19.988	100.327	20.156	4.695
793.500	454.545	80.008	19.991	100.328	20.156	4.673
794.000	454.825	80.008	19.990	100.331	20.157	4.609
794.500	455.042	80.014	19.993	100.333	20.156	4.675
795.000	455.306	80.009	19.988	100.331	20.157	4.611
795.500	455.545	80.005	19.983	100.324	20.156	4.657
796.000	455.793	80.013	19.992	100.317	20.155	4.713
796.500	456.043	80.011	19.991	100.320	20.157	4.589
797.000	456.280	80.005	19.989	100.315	20.157	4.587
797.500	456.552	80.011	19.990	100.310	20.158	4.507
798.000	456.770	80.021	19.995	100.311	20.157	4.571
798.500	457.018	80.011	19.990	100.318	20.157	4.623
799.000	457.260	80.004	19.988	100.314	20.157	4.557
799.500	457.506	80.010	19.989	100.311	20.158	4.517
800.000	457.772	80.004	19.988	100.311	20.157	4.585
800.500	457.989	80.003	19.988	100.309	20.157	4.576
801.000	458.274	80.014	19.990	100.303	20.157	4.555
801.500	458.497	80.003	19.988	100.302	20.158	4.523
802.000	458.744	80.003	19.986	100.302	20.157	4.587
802.500	458.986	80.008	19.990	100.300	20.160	4.388
803.000	459.233	80.007	19.990	100.301	20.159	4.443
803.500	459.493	80.009	19.991	100.303	20.159	4.444
804.000	459.696	80.007	19.989	100.304	20.159	4.420
804.500	459.995	80.011	19.990	100.304	20.159	4.423
805.000	460.209	80.013	19.992	100.307	20.159	4.443
805.500	460.468	80.010	19.989	100.309	20.159	4.439
806.000	460.714	80.012	19.989	100.309	20.158	4.504
806.500	460.955	80.007	19.989	100.308	20.160	4.334
807.000	461.214	80.015	19.992	100.310	20.159	4.402
807.500	461.434	80.009	19.987	100.312	20.159	4.412
808.000	461.696	79.999	19.986	100.311	20.160	4.340
808.500	461.920	80.004	19.989	100.312	20.161	4.279
809.000	462.204	80.006	19.988	100.312	20.161	4.268
809.500	462.412	80.011	19.991	100.310	20.162	4.229
810.000	462.661	80.014	19.991	100.309	20.161	4.296
810.500	462.917	80.007	19.989	100.310	20.161	4.280
811.000	463.138	80.010	19.990	100.310	20.162	4.193
811.500	463.412	80.009	19.991	100.310	20.162	4.157
812.000	463.634	80.005	19.988	100.311	20.162	4.200
812.500	463.889	80.005	19.988	100.308	20.164	4.069
813.000	464.138	80.015	19.991	100.306	20.163	4.102
813.500	464.359	80.010	19.990	100.306	20.164	4.045
814.000	464.628	80.004	19.988	100.306	20.163	4.121
814.500	464.859	80.008	19.988	100.304	20.163	4.114
815.000	465.137	80.008	19.990	100.305	20.164	4.002
815.500	465.365	80.014	19.993	100.307	20.165	3.968
816.000	465.610	80.006	19.989	100.310	20.165	3.955
816.500	465.855	80.008	19.990	100.310	20.165	3.942
817.000	466.096	80.009	19.989	100.312	20.164	4.035
817.500	466.348	80.009	19.990	100.313	20.164	4.036
818.000	466.575	80.007	19.991	100.312	20.164	4.027
818.500	466.848	80.006	19.988	100.309	20.164	4.021
819.000	467.080	80.009	19.990	100.307	20.165	3.979
819.500	467.326	80.006	19.989	100.308	20.166	3.834
820.000	467.576	80.007	19.992	100.306	20.165	3.922
820.500	467.808	80.008	19.986	100.308	20.165	3.977
821.000	468.059	80.010	19.990	100.305	20.166	3.853
821.500	468.299	80.010	19.989	100.309	20.167	3.777
822.000	468.555	80.012	19.992	100.309	20.168	3.722
822.500	468.778	80.009	19.991	100.312	20.169	3.665
823.000	469.049	80.013	19.991	100.312	20.167	3.789
823.500	469.283	80.012	19.991	100.315	20.167	3.810
824.000	469.523	80.013	19.991	100.313	20.168	3.699
824.500	469.786	80.006	19.989	100.314	20.167	3.773
825.000	470.013	80.008	19.992	100.311	20.167	3.808
825.500	470.265	80.013	19.992	100.311	20.167	3.778
826.000	470.493	80.007	19.986	100.312	20.168	3.749
826.500	470.757	80.007	19.992	100.309	20.168	3.727
827.000	471.000	80.011	19.993	100.310	20.169	3.613
827.500	471.257	80.011	19.990	100.313	20.168	3.706
828.000	471.512	80.002	19.991	100.310	20.168	3.680
828.500	471.726	79.996	19.985	100.309	20.168	3.681
829.000	471.996	80.016	19.994	100.308	20.170	3.589
829.500	472.213	80.005	19.990	100.310	20.169	3.658
830.000	472.486	80.019	19.995	100.307	20.169	3.618
830.500	472.718	80.009	19.982	100.311	20.169	3.647
831.000	472.959	80.007	19.987	100.305	20.169	3.626
831.500	473.206	80.010	19.990	100.307	20.170	3.585
832.000	473.436	80.003	19.989	100.304	20.171	3.439
832.500	473.704	80.003	19.985	100.302	20.173	3.351
833.000	473.935	80.011	19.991	100.296	20.170	3.549
833.500	474.188	80.007	19.989	100.301	20.172	3.433
834.000	474.442	80.008	19.989	100.303	20.171	3.452
834.500	474.695	80.011	19.989	100.302	20.171	3.461
835.000	474.941	80.009	19.990	100.302	20.171	3.492
835.500	475.158	80.012	19.990	100.301	20.171	3.492
836.000	475.445	80.019	19.992	100.298	20.171	3.454
836.500	475.664	80.008	19.990	100.296	20.171	3.453
837.000	475.916	80.008	19.990	100.295	20.171	3.450
837.500	476.154	80.010	19.990	100.296	20.172	3.394
838.000	476.402	80.010	19.992	100.299	20.171	3.485
838.500	476.676	80.008	19.989	100.303	20.171	3.483
839.000	476.881	80.011	19.989	100.303	20.172	3.385
839.500	477.173	80.012	19.991	100.301	20.173	3.295
840.000	477.396	80.016	19.992	100.303	20.171	3.468
840.500	477.655	80.008	19.992	100.306	20.172	3.435
841.000	477.897	80.007	19.989	100.307	20.172	3.433
841.500	478.123	80.007	19.989	100.308	20.173	3.312
842.000	478.388	80.006	19.988	100.311	20.174	3.255
842.500	478.617	80.005	19.987	100.309	20.175	3.193
843.000	478.894	80.019	19.994	100.311	20.175	3.171
843.500	479.109	80.009	19.990	100.316	20.174	3.237
844.000	479.363	80.006	19.990	100.318	20.174	3.264
844.500	479.610	80.011	19.990	100.320	20.174	3.230
845.000	479.868	80.011	19.989	100.321	20.175	3.173
845.500	480.097	80.014	19.993	100.315	20.175	3.182
846.000	480.327	80.007	19.989	100.311	20.176	3.111
846.500	480.617	80.006	19.988	100.309	20.175	3.131
847.000	480.823	80.015	19.993	100.310	20.174	3.202
847.500	481.096	80.007	19.989	100.313	20.176	3.100
848.000	481.342	80.011	19.988	100.317	20.176	3.039
848.500	481.579	80.010	19.991	100.312	20.177	2.960
849.000	481.840	80.004	19.988	100.316	20.178	2.928
849.500	482.047	80.010	19.992	100.314	20.179	2.854
850.000	482.323	80.020	19.987	100.317	20.178	2.914
850.500	482.544	80.008	19.993	100.313	20.178	2.930
851.000	482.818	80.009	19.992	100.319	20.178	2.899
851.500	483.049	80.010	19.991	100.316	20.178	2.910
852.000	483.296	80.012	19.990	100.317	20.178	2.880
852.500	483.555	80.009	19.990	100.311	20.179	2.865
853.000	483.773	80.015	19.992	100.312	20.179	2.807
853.500	484.062	80.004	19.990	100.310	20.179	2.861
854.000	484.284	80.012	19.992	100.308	20.179	2.801
854.500	484.541	80.007	19.989	100.306	20.180	2.785
855.000	484.772	80.018	19.992	100.305	20.178	2.914
855.500	485.029	80.003	19.988	100.306	20.180	2.791
856.000	485.281	80.012	19.992	100.306	20.179	2.831
856.500	485.516	80.007	19.989	100.307	20.179	2.820
857.000	485.780	80.008	19.989	100.305	20.181	2.674
857.500	486.020	80.010	19.993	100.305	20.180	2.780
858.000	486.273	80.014	19.996	100.305	20.181	2.661
858.500	486.514	80.017	19.993	100.308	20.180	2.746
859.000	486.743	80.014	19.989	100.310	20.181	2.700
859.500	487.020	80.012	19.990	100.312	20.179	2.842
860.000	487.241	80.013	19.990	100.312	20.180	2.767
860.500	487.505	80.013	19.991	100.312	20.179	2.805
861.000	487.748	80.012	19.991	100.308	20.180	2.731
861.500	487.987	80.014	19.992	100.307	20.181	2.660
862.000	488.219	80.009	19.990	100.307	20.182	2.624
862.500	488.468	80.007	19.989	100.307	20.181	2.681
863.000	488.724	80.013	19.991	100.304	20.182	2.631
863.500	488.958	80.008	19.990	100.304	20.180	2.730
864.000	489.230	80.016	19.994	100.303	20.181	2.689
864.500	489.453	80.014	19.992	100.305	20.182	2.640
865.000	489.709	80.006	19.988	100.307	20.181	2.696
865.500	489.953	80.008	19.989	100.307	20.182	2.563
866.000	490.174	80.008	19.989	100.306	20.182	2.614
866.500	490.440	80.009	19.990	100.306	20.183	2.497
867.000	490.669	80.011	19.990	100.304	20.183	2.486
867.500	490.945	80.013	19.992	100.304	20.182	2.598
868.000	491.174	80.012	19.990	100.306	20.183	2.503
868.500	491.424	80.013	19.992	100.308	20.183	2.525
869.000	491.673	80.007	19.990	100.310	20.184	2.481
869.500	491.913	80.017	19.992	100.310	20.183	2.518
870.000	492.160	80.008	19.988	100.310	20.184	2.457
870.500	492.392	80.008	19.988	100.310	20.184	2.410
871.000	492.671	80.012	19.991	100.305	20.183	2.557
871.500	492.895	80.014	19.990	100.304	20.184	2.440
872.000	493.157	80.006	19.988	100.305	20.183	2.540
872.500	493.395	80.019	19.994	100.305	20.184	2.475
873.000	493.637	80.015	19.992	100.308	20.185	2.350
873.500	493.905	80.017	19.991	100.314	20.185	2.337
874.000	494.115	80.011	19.990	100.314	20.184	2.448
874.500	494.390	80.020	19.994	100.314	20.184	2.471
875.000	494.624	80.010	19.990	100.316	20.184	2.432
875.500	494.883	80.005	19.987	100.313	20.184	2.434
876.000	495.110	80.012	19.990	100.307	20.185	2.395
876.500	495.355	80.006	19.987	100.306	20.184	2.420
877.000	495.614	80.009	19.985	100.304	20.183	2.493
877.500	495.853	80.005	19.986	100.298	20.184	2.447
878.000	496.127	80.011	19.989	100.294	20.183	2.507
878.500	496.359	80.013	19.991	100.295	20.183	2.546
879.000	496.611	80.013	19.989	100.297	20.182	2.592
879.500	496.843	80.012	19.989	100.297	20.183	2.500
880.000	497.095	80.014	19.992	100.299	20.183	2.498
880.500	497.358	80.007	19.991	100.303	20.184	2.410
881.000	497.579	80.009	19.989	100.304	20.183	2.536
881.500	497.836	80.008	19.989	100.302	20.184	2.474
882.000	498.070	80.010	19.990	100.302	20.183	2.513
882.500	498.335	80.015	19.992	100.302	20.184	2.453
883.000	498.576	80.004	19.986	100.302	20.184	2.454
883.500	498.824	80.017	19.992	100.298	20.183	2.551
884.000	499.086	80.007	19.987	100.301	20.184	2.424
884.500	499.308	80.005	19.986	100.300	20.185	2.388
885.000	499.575	80.017	19.992	100.298	20.185	2.376
885.500	499.801	80.007	19.986	100.299	20.184	2.431
886.000	500.050	80.014	19.991	100.299	20.184	2.444
886.500	500.301	80.009	19.988	100.299	20.184	2.427
887.000	500.552	80.011	19.990	100.300	20.185	2.378
887.500	500.791	80.011	19.989	100.303	20.185	2.383
888.000	501.009	80.011	19.989	100.301	20.186	2.293
888.500	501.297	80.019	19.991	100.304	20.186	2.277
889.000	501.523	80.012	19.990	100.303	20.186	2.296
889.500	501.793	80.003	19.985	100.305	20.185	2.351
890.000	502.029	80.008	19.988	100.302	20.184	2.466
890.500	502.272	80.010	19.987	100.300	20.186	2.289
891.000	502.535	80.013	19.991	100.301	20.187	2.175
891.500	502.752	80.009	19.988	100.303	20.186	2.292
892.000	503.027	80.008	19.991	100.300	20.187	2.185
892.500	503.249	80.014	19.990	100.304	20.185	2.325
893.000	503.522	80.016	19.991	100.305	20.188	2.141
893.500	503.768	80.003	19.986	100.306	20.187	2.171
894.000	504.002	80.016	19.991	100.301	20.187	2.230
894.500	504.255	80.008	19.988	100.306	20.188	2.127
895.000	504.482	80.001	19.985	100.307	20.187	2.203
895.500	504.782	80.011	19.990	100.303	20.187	2.220
896.000	505.004	80.013	19.990	100.302	20.186	2.276
896.500	505.249	80.005	19.986	100.306	20.189	2.054
897.000	505.477	80.014	19.990	100.299	20.187	2.176
897.500	505.714	80.006	19.987	100.299	20.188	2.140
898.000	506.002	80.013	19.990	100.301	20.188	2.139
898.500	506.213	80.010	19.991	100.302	20.189	2.084
899.000	506.490	80.017	19.994	100.302	20.188	2.095
899.500	506.705	80.012	19.991	100.307	20.188	2.088
900.000	506.981	80.018	19.993	100.307	20.190	1.950
900.500	507.237	80.013	19.991	100.312	20.189	2.017
901.000	507.463	80.007	19.989	100.310	20.188	2.090
901.500	507.729	80.011	19.990	100.310	20.188	2.137
902.000	507.945	80.007	19.988	100.308	20.188	2.118
902.500	508.221	80.003	19.987	100.305	20.189	2.063
903.000	508.445	80.020	19.994	100.301	20.190	1.951
903.500	508.708	80.010	19.990	100.304	20.190	1.984
904.000	508.960	80.006	19.989	100.305	20.191	1.926
904.500	509.203	80.015	19.993	100.306	20.189	2.054
905.000	509.455	80.010	19.988	100.309	20.189	2.078
905.500	509.682	80.008	19.988	100.309	20.187	2.170
906.000	509.936	80.005	19.989	100.304	20.190	2.004
906.500	510.176	80.006	19.987	100.302	20.189	2.055
907.000	510.434	80.007	19.988	100.298	20.188	2.091
907.500	510.697	80.001	19.985	100.296	20.189	2.022
908.000	510.930	80.014	19.997	100.294	20.190	1.972
908.500	511.191	80.008	19.991	100.302	20.189	2.081
909.000	511.410	80.013	19.991	100.305	20.189	2.017
909.500	511.698	80.002	19.988	100.307	20.189	2.052
910.000	511.898	80.012	19.991	100.306	20.190	1.985
910.500	512.178	80.005	19.987	100.310	20.190	2.001
911.000	512.430	80.011	19.990	100.298	20.188	2.097
911.500	512.656	80.013	19.992	100.294	20.189	2.009
912.000	512.919	80.012	19.991	100.290	20.190	1.956
912.500	513.140	80.009	19.990	100.292	20.190	1.980
913.000	513.419	80.013	19.991	100.287	20.191	1.907
913.500	513.641	80.015	19.993	100.288	20.190	1.936
914.000	513.896	80.005	19.988	100.294	20.189	2.008
914.500	514.152	80.008	19.988	100.297	20.192	1.835
915.000	514.388	80.012	19.992	100.295	20.190	1.972
915.500	514.613	80.009	19.989	100.300	20.190	1.960
916.000	514.828	80.008	19.989	100.301	20.190	1.948
916.500	515.136	80.011	19.990	100.298	20.190	1.958
917.000	515.344	80.013	19.991	100.294	20.190	1.946
917.500	515.604	80.004	19.988	100.296	20.191	1.888
918.000	515.843	80.011	19.991	100.294	20.190	2.001
918.500	516.104	80.008	19.992	100.296	20.190	1.929
919.000	516.360	80.008	19.989	100.295	20.189	2.011
919.500	516.566	80.012	19.992	100.294	20.190	1.966
920.000	516.864	80.012	19.991	100.294	20.193	1.765
920.500	517.094	80.005	19.988	100.297	20.191	1.892
921.000	517.349	80.011	19.990	100.292	20.191	1.878
921.500	517.594	80.015	19.992	100.291	20.191	1.900
922.000	517.832	80.002	19.986	100.291	20.190	1.939
922.500	518.096	80.010	19.991	100.284	20.192	1.795
923.000	518.329	80.007	19.990	100.283	20.191	1.861
923.500	518.600	80.008	19.988	100.285	20.192	1.834
924.000	518.825	80.009	19.990	100.285	20.191	1.886
924.500	519.079	80.011	19.991	100.283	20.191	1.870
925.000	519.315	80.009	19.989	100.286	20.192	1.792
925.500	519.582	80.008	19.989	100.283	20.192	1.820
926.000	519.828	80.009	19.989	100.279	20.192	1.842
926.500	520.044	80.014	19.992	100.277	20.192	1.824
927.000	520.336	80.007	19.988	100.282	20.192	1.835
927.500	520.565	80.009	19.990	100.283	20.192	1.770
928.000	520.832	80.006	19.989	100.287	20.191	1.883
928.500	521.063	80.012	19.992	100.291	20.192	1.795
929.000	521.311	80.005	19.988	100.298	20.193	1.765
929.500	521.566	80.007	19.990	100.294	20.193	1.765
930.000	521.794	80.010	19.991	100.293	20.193	1.694
930.500	522.075	80.013	19.991	100.292	20.193	1.716
931.000	522.312	79.996	19.985	100.296	20.193	1.729
931.500	522.574	80.017	19.994	100.290	20.193	1.735
932.000	522.812	80.014	19.992	100.300	20.195	1.605
932.500	523.063	80.007	19.989	100.307	20.192	1.793
933.000	523.307	80.010	19.990	100.308	20.193	1.749
933.500	523.522	80.016	19.993	100.307	20.194	1.677
934.000	523.813	80.005	19.988	100.315	20.194	1.673
934.500	524.021	80.004	19.987	100.310	20.194	1.629
935.000	524.302	80.007	19.990	100.306	20.194	1.610
935.500	524.542	80.003	19.986	100.306	20.194	1.619
936.000	524.803	80.010	19.991	100.303	20.193	1.699
936.501	525.041	80.016	19.993	100.301	20.195	1.550
937.000	525.274	80.007	19.989	100.306	20.196	1.528
937.500	525.551	80.010	19.991	100.308	20.195	1.595
938.000	525.784	80.004	19.988	100.308	20.196	1.502
938.500	526.033	80.011	19.991	100.309	20.197	1.442
939.000	526.276	80.007	19.988	100.309	20.195	1.532
939.500	526.522	80.010	19.991	100.305	20.195	1.539
940.000	526.788	80.009	19.989	100.307	20.196	1.471
940.500	527.007	80.007	19.989	100.307	20.196	1.476
941.000	527.306	80.004	19.987	100.308	20.197	1.412
941.500	527.513	80.006	19.988	100.304	20.196	1.453
942.000	527.781	80.008	19.990	100.304	20.195	1.547
942.500	528.012	80.016	19.992	100.302	20.196	1.493
943.000	528.262	80.011	19.991	100.304	20.196	1.474
943.500	528.528	80.009	19.991	100.306	20.196	1.470
944.000	528.757	80.006	19.988	100.308	20.198	1.354
944.500	529.013	80.008	19.990	100.309	20.196	1.492
945.000	529.245	80.002	19.987	100.308	20.196	1.498
945.500	529.497	80.012	19.991	100.302	20.195	1.535
946.000	529.769	80.008	19.988	100.300	20.194	1.618
946.500	530.014	80.013	19.991	100.298	20.197	1.415
947.000	530.254	80.002	19.986	100.301	20.196	1.528
947.500	530.491	80.014	19.992	100.298	20.197	1.419
948.000	530.751	80.005	19.988	100.304	20.197	1.417
948.500	530.989	80.006	19.989	100.304	20.197	1.409
949.000	531.258	80.009	19.991	100.305	20.196	1.463
949.500	531.498	80.006	19.990	100.303	20.197	1.380
950.000	531.734	80.011	19.990	100.306	20.198	1.306
950.500	531.993	80.008	19.990	100.304	20.198	1.352
951.000	532.243	80.009	19.990	100.306	20.198	1.316
951.500	532.513	80.003	19.987	100.307	20.199	1.258
952.000	532.730	80.004	19.987	100.304	20.199	1.270
952.500	532.987	80.012	19.992	100.302	20.199	1.227
953.000	533.225	80.006	19.988	100.303	20.200	1.136
953.500	533.477	80.012	19.992	100.302	20.199	1.280
954.000	533.748	80.006	19.988	100.303	20.201	1.114
954.500	533.967	80.010	19.990	100.306	20.199	1.270
955.000	534.240	80.003	19.989	100.308	20.198	1.308
955.500	534.469	80.010	19.991	100.306	20.200	1.136
956.000	534.720	80.014	19.992	100.308	20.201	1.102
956.500	534.956	80.012	19.992	100.308	20.200	1.171
957.000	535.221	80.004	19.988	100.311	20.202	0.982
957.500	535.476	80.015	19.993	100.309	20.201	1.122
958.000	535.706	80.011	19.991	100.313	20.199	1.247
958.500	535.977	80.007	19.989	100.312	20.200	1.184
959.000	536.210	80.005	19.988	100.309	20.200	1.176
959.500	536.459	80.007	19.989	100.305	20.202	1.047
960.000	536.716	80.010	19.990	100.306	20.202	1.042
960.500	536.949	80.004	19.987	100.304	20.200	1.202
961.000	537.202	80.012	19.991	100.300	20.201	1.092
961.500	537.442	80.014	19.992	100.302	20.201	1.056
962.000	537.722	80.013	19.992	100.305	20.200	1.135
962.500	537.943	80.012	19.991	100.307	20.200	1.176
963.000	538.208	80.006	19.989	100.308	20.200	1.133
963.500	538.442	80.011	19.990	100.310	20.199	1.264
964.000	538.691	80.011	19.990	100.309	20.201	1.127
964.500	538.932	80.009	19.989	100.308	20.200	1.148
965.000	539.169	80.005	19.987	100.305	20.200	1.185
965.500	539.462	80.005	19.988	100.302	20.200	1.133
966.000	539.674	80.008	19.990	100.301	20.201	1.073
966.500	539.942	80.011	19.991	100.301	20.201	1.065
967.000	540.172	80.011	19.992	100.300	20.201	1.108
967.500	540.421	80.009	19.989	100.302	20.199	1.262
968.001	540.684	80.010	19.991	100.303	20.199	1.224
968.500	540.909	80.006	19.988	100.304	20.201	1.127
969.000	541.193	80.008	19.990	100.300	20.201	1.116
969.500	541.416	80.008	19.991	100.299	20.202	0.983
970.000	541.665	80.006	19.990	100.298	20.201	1.060
970.500	541.903	80.006	19.988	100.299	20.201	1.115
971.000	542.159	80.016	19.994	100.298	20.201	1.068
971.500	542.418	80.012	19.991	100.304	20.201	1.066
972.000	542.648	80.009	19.990	100.306	20.202	1.039
972.500	542.911	80.009	19.990	100.306	20.201	1.102
973.000	543.132	80.007	19.989	100.306	20.202	1.046
973.500	543.397	80.007	19.990	100.307	20.200	1.163
974.000	543.648	80.010	19.991	100.304	20.201	1.130
974.500	543.866	80.012	19.991	100.303	20.202	1.037
975.000	544.130	80.006	19.989	100.300	20.201	1.129
975.500	544.354	80.012	19.992	100.292	20.200	1.159
976.000	544.647	80.015	19.993	100.292	20.199	1.224
976.500	544.876	80.008	19.989	100.295	20.201	1.095
977.000	545.130	80.008	19.989	100.294	20.200	1.174
977.500	545.368	80.007	19.990	100.297	20.200	1.169
978.000	545.600	80.010	19.990	100.308	20.199	1.255
978.500	545.862	80.006	19.989	100.307	20.199	1.237
979.000	546.087	80.006	19.989	100.299	20.198	1.324
979.500	546.366	80.010	19.990	100.293	20.200	1.182
980.001	546.593	80.008	19.989	100.292	20.200	1.170
980.500	546.843	80.017	19.994	100.287	20.201	1.131
981.000	547.084	80.006	19.989	100.292	20.201	1.126
981.500	547.319	80.008	19.990	100.295	20.201	1.117
982.000	547.582	80.008	19.989	100.301	20.201	1.128
982.500	547.807	80.015	19.993	100.300	20.201	1.056
983.001	548.071	80.006	19.988	100.304	20.201	1.132
983.500	548.322	80.005	19.988	100.300	20.200	1.156
984.000	548.573	80.018	19.994	100.302	20.201	1.056
984.500	548.808	80.005	19.988	100.307	20.201	1.081
985.000	549.054	80.005	19.988	100.307	20.200	1.163
985.500	549.310	80.006	19.988	100.304	20.201	1.054
986.000	549.536	80.008	19.989	100.304	20.201	1.068
986.500	549.813	80.003	19.987	100.304	20.201	1.114
987.000	550.010	80.001	19.985	100.298	20.200	1.146
987.500	550.293	80.008	19.990	100.295	20.200	1.161
988.000	550.533	80.011	19.989	100.297	20.200	1.195
988.500	550.776	80.009	19.989	100.299	20.199	1.286
989.000	551.026	80.013	19.991	100.301	20.201	1.121
989.500	551.258	80.011	19.990	100.305	20.201	1.114
990.000	551.531	80.012	19.991	100.308	20.202	1.045
990.500	551.755	80.008	19.990	100.310	20.203	0.904
991.000	552.009	80.012	19.989	100.308	20.201	1.056
991.500	552.261	80.007	19.989	100.306	20.202	1.007
992.000	552.503	80.006	19.988	100.303	20.202	1.021
992.500	552.746	80.006	19.988	100.299	20.202	0.991
993.000	552.983	80.009	19.988	100.296	20.203	0.918
993.500	553.247	80.009	19.989	100.294	20.203	0.964
994.000	553.481	80.008	19.988	100.294	20.202	1.004
994.500	553.722	80.009	19.989	100.295	20.203	0.946
995.000	553.977	80.013	19.992	100.299	20.202	1.006
995.500	554.217	80.005	19.988	100.302	20.202	0.975
996.000	554.466	80.009	19.989	100.303	20.202	1.051
996.500	554.695	80.009	19.989	100.300	20.202	1.008
997.000	554.961	80.007	19.987	100.300	20.202	0.995
997.500	555.169	80.009	19.989	100.299	20.201	1.123
998.000	555.433	80.010	19.989	100.297	20.200	1.169
998.500	555.682	80.019	19.994	100.297	20.201	1.123
999.000	555.935	80.004	19.987	100.303	20.201	1.114
999.500	556.182	80.008	19.989	100.302	20.200	1.135
1000.000	556.399	80.005	19.989	100.297	20.202	0.997
1000.500	556.683	80.012	19.990	100.288	20.203	0.951
1001.000	556.908	80.013	19.991	100.288	20.202	0.991
1001.500	557.180	80.013	19.991	100.284	20.201	1.098
1002.000	557.403	80.005	19.987	100.287	20.200	1.163
1002.500	557.638	80.013	19.992	100.291	20.202	1.034
1003.000	557.894	80.006	19.987	100.305	20.203	0.961
1003.500	558.123	80.004	19.988	100.310	20.201	1.118
1004.000	558.405	80.009	19.989	100.307	20.202	1.001
1004.500	558.623	80.017	19.994	100.300	20.201	1.128
1005.000	558.884	80.015	19.991	100.303	20.200	1.170
1005.500	559.128	80.009	19.989	100.298	20.202	1.030
1006.000	559.359	80.009	19.990	100.295	20.201	1.125
1006.500	559.622	80.010	19.990	100.297	20.202	1.026
1007.000	559.852	80.009	19.989	100.303	20.203	0.924
1007.500	560.106	80.016	19.994	100.299	20.203	0.922
1008.000	560.343	80.006	19.988	100.301	20.202	0.977
1008.500	560.598	80.005	19.988	100.298	20.203	0.937
1009.000	560.841	80.015	19.992	100.293	20.203	0.924
1009.500	561.072	80.015	19.992	100.290	20.202	0.981
1010.000	561.344	80.017	19.993	100.289	20.203	0.947
1010.500	561.559	80.011	19.991	100.286	20.201	1.093
1011.000	561.836	80.018	19.993	100.287	20.202	0.993
1011.500	562.047	80.014	19.992	100.293	20.201	1.055
1012.000	562.330	80.014	19.992	100.295	20.202	0.982
1012.500	562.557	80.010	19.990	100.299	20.202	1.035
1013.000	562.807	80.006	19.989	100.301	20.201	1.073
1013.500	563.047	80.008	19.989	100.300	20.203	0.941
1014.001	563.268	80.009	19.990	100.297	20.202	1.019
1014.500	563.562	80.009	19.990	100.298	20.201	1.061
1015.000	563.774	80.015	19.992	100.297	20.202	1.005
1015.500	564.025	80.006	19.988	100.298	20.202	1.010
1016.000	564.267	80.006	19.988	100.297	20.202	0.982
1016.500	564.517	80.014	19.991	100.297	20.202	1.008
1017.000	564.765	80.009	19.989	100.299	20.202	1.023
1017.500	564.982	80.005	19.988	100.298	20.202	1.007
1018.000	565.266	80.008	19.988	100.293	20.201	1.061
1018.500	565.486	80.003	19.987	100.295	20.202	1.036
1019.000	565.748	80.008	19.990	100.295	20.201	1.129
1019.500	565.985	80.009	19.989	100.290	20.202	1.044
1020.000	566.233	80.008	19.989	100.287	20.202	1.029
1020.500	566.481	80.008	19.990	100.289	20.203	0.915
1021.000	566.704	80.005	19.988	100.289	20.202	1.003
1021.500	566.980	80.007	19.990	100.290	20.202	1.023
1022.000	567.211	80.007	19.989	100.294	20.202	0.982
1022.500	567.461	80.009	19.989	100.294	20.202	1.029
1023.000	567.701	80.015	19.993	100.294	20.203	0.908
1023.500	567.959	80.001	19.986	100.296	20.204	0.880
1024.000	568.211	80.010	19.991	100.293	20.203	0.933
1024.500	568.443	80.013	19.992	100.293	20.203	0.948
1025.000	568.702	80.005	19.989	100.297	20.203	0.934
1025.500	568.930	80.013	19.991	100.299	20.203	0.925
1026.000	569.197	80.007	19.987	100.299	20.202	1.012
1026.500	569.427	80.010	19.991	100.303	20.203	0.929
1027.000	569.667	80.014	19.992	100.304	20.203	0.947
1027.500	569.935	80.008	19.989	100.305	20.202	0.982
1028.000	570.151	80.006	19.989	100.306	20.204	0.832
1028.500	570.436	80.006	19.988	100.303	20.204	0.835
1029.000	570.662	80.008	19.989	100.303	20.205	0.807
1029.501	570.912	80.002	19.986	100.300	20.203	0.896
1030.001	571.161	80.011	19.991	100.295	20.203	0.906
1030.501	571.387	80.012	19.991	100.295	20.204	0.880
1031.001	571.665	80.011	19.990	100.298	20.204	0.823
1031.501	571.870	80.006	19.987	100.299	20.203	0.936
1032.001	572.158	80.012	19.990	100.298	20.203	0.956
1032.501	572.390	80.005	19.987	100.303	20.203	0.900
1033.000	572.624	80.007	19.989	100.299	20.204	0.859
1033.500	572.880	80.012	19.991	100.296	20.204	0.853
1034.000	573.121	80.019	19.994	100.297	20.202	0.973
1034.500	573.385	80.009	19.990	100.304	20.204	0.884
1035.000	573.613	80.012	19.991	100.304	20.204	0.863
1035.500	573.889	80.016	19.993	100.306	20.203	0.914
1036.000	574.116	80.007	19.988	100.310	20.205	0.798
1036.500	574.365	80.012	19.991	100.307	20.204	0.886
1037.001	574.610	80.014	19.993	100.301	20.205	0.772
1037.501	574.852	80.011	19.990	100.295	20.204	0.882
1038.000	575.115	80.010	19.990	100.292	20.204	0.817
1038.500	575.347	80.012	19.991	100.286	20.203	0.918
1039.000	575.618	80.008	19.989	100.281	20.204	0.823
1039.500	575.831	80.003	19.987	100.280	20.203	0.947
1040.000	576.095	80.008	19.990	100.280	20.202	1.016
1040.500	576.344	80.012	19.991	100.282	20.203	0.938
1041.000	576.583	80.012	19.990	100.286	20.203	0.929
1041.500	576.844	80.013	19.991	100.290	20.202	0.988
1042.000	577.064	80.012	19.990	100.293	20.203	0.944
1042.500	577.333	80.017	19.994	100.298	20.204	0.857
1043.000	577.561	80.017	19.993	100.304	20.204	0.881
1043.500	577.824	80.008	19.989	100.305	20.203	0.915
1044.000	578.079	80.017	19.992	100.307	20.205	0.798
1044.500	578.321	80.004	19.986	100.307	20.203	0.955
1045.001	578.582	80.009	19.990	100.305	20.203	0.923
1045.501	578.804	80.004	19.986	100.302	20.203	0.939
1046.000	579.058	80.013	19.991	100.298	20.203	0.899
1046.500	579.292	80.010	19.990	100.300	20.205	0.750
1047.000	579.556	80.010	19.989	100.300	20.204	0.865
1047.500	579.805	80.009	19.989	100.302	20.202	0.974
1048.000	580.039	80.014	19.991	100.299	20.204	0.858
1048.500	580.302	80.020	19.994	100.294	20.204	0.836
1049.000	580.531	80.012	19.990	100.296	20.204	0.849
1049.500	580.824	80.006	19.987	100.296	20.205	0.799
1050.001	581.052	80.008	19.989	100.295	20.204	0.814
1050.501	581.288	80.010	19.989	100.295	20.204	0.828
1051.000	581.518	80.015	19.992	100.301	20.205	0.792
1051.500	581.755	80.010	19.988	100.298	20.204	0.846
1052.000	582.024	80.012	19.989	100.296	20.205	0.776
1052.500	582.268	80.016	19.993	100.291	20.205	0.759
1053.000	582.545	80.012	19.990	100.292	20.206	0.669
1053.500	582.765	80.008	19.988	100.290	20.204	0.819
1054.000	583.022	80.010	19.989	100.283	20.205	0.781
1054.500	583.269	80.010	19.989	100.279	20.204	0.834
1055.000	583.515	80.005	19.988	100.276	20.204	0.816
1055.500	583.756	80.009	19.988	100.276	20.205	0.738
1056.000	583.984	80.009	19.987	100.276	20.205	0.772
1056.500	584.266	80.015	19.991	100.281	20.205	0.789
1057.000	584.489	80.009	19.987	100.289	20.206	0.728
1057.500	584.765	80.006	19.986	100.293	20.205	0.741
1058.000	584.982	80.011	19.989	100.294	20.205	0.754
1058.500	585.240	80.007	19.987	100.297	20.205	0.764
1059.001	585.490	80.014	19.990	100.295	20.205	0.737
1059.501	585.727	80.016	19.991	100.291	20.205	0.777
1060.001	586.014	80.008	19.987	100.296	20.203	0.920
1060.501	586.254	80.008	19.988	100.296	20.205	0.811
1061.000	586.493	80.010	19.990	100.294	20.205	0.771
1061.500	586.744	80.013	19.991	100.298	20.205	0.746
1062.000	586.978	80.007	19.988	100.298	20.205	0.760
1062.500	587.246	80.015	19.991	100.294	20.205	0.745
1063.000	587.466	80.010	19.989	100.295	20.204	0.829
1063.500	587.747	80.006	19.987	100.296	20.205	0.764
1064.000	587.980	80.020	19.994	100.294	20.204	0.816
1064.501	588.227	80.006	19.988	100.296	20.204	0.859
1065.001	588.487	80.004	19.987	100.297	20.205	0.794
1065.500	588.732	80.009	19.989	100.293	20.204	0.877
1066.000	588.990	80.007	19.988	100.289	20.204	0.831
1066.501	589.201	80.016	19.992	100.288	20.204	0.873
1067.001	589.495	80.006	19.987	100.289	20.205	0.809
1067.500	589.723	80.013	19.991	100.288	20.203	0.951
1068.000	589.973	80.009	19.989	100.293	20.204	0.856
1068.500	590.213	80.007	19.988	100.295	20.204	0.858
1069.000	590.454	80.011	19.990	100.291	20.205	0.769
1069.500	590.708	80.004	19.987	100.288	20.204	0.845
1070.000	590.952	80.011	19.990	100.286	20.205	0.746
1070.500	591.238	80.011	19.992	100.280	20.203	0.902
1071.000	591.469	80.014	19.992	100.286	20.203	0.944
1071.500	591.720	80.012	19.991	100.294	20.204	0.826
1072.000	591.970	80.007	19.990	100.299	20.203	0.918
1072.500	592.199	80.008	19.989	100.304	20.204	0.863
1073.001	592.469	80.005	19.988	100.309	20.203	0.941
1073.501	592.702	80.011	19.991	100.305	20.204	0.891
1074.000	592.975	80.008	19.990	100.300	20.204	0.865
1074.500	593.195	80.010	19.991	100.292	20.205	0.811
1075.000	593.456	80.010	19.990	100.287	20.204	0.863
1075.500	593.720	80.010	19.990	100.285	20.205	0.768
1076.000	593.968	80.010	19.988	100.287	20.203	0.940
1076.500	594.192	80.004	19.989	100.290	20.204	0.827
1077.000	594.437	80.008	19.989	100.292	20.205	0.805
1077.500	594.738	80.015	19.994	100.291	20.205	0.747
1078.001	594.958	80.008	19.989	100.295	20.203	0.934
1078.501	595.209	80.012	19.991	100.295	20.206	0.676
1079.000	595.456	80.013	19.992	100.295	20.205	0.752
1079.500	595.696	80.014	19.994	100.298	20.206	0.711
1080.000	595.964	80.009	19.989	100.305	20.205	0.805
1080.500	596.185	80.003	19.988	100.304	20.205	0.808
1081.000	596.469	80.011	19.991	100.303	20.205	0.751
1081.500	596.687	80.019	19.995	100.304	20.206	0.655
1082.000	596.948	80.011	19.992	100.307	20.206	0.690
1082.500	597.184	80.013	19.992	100.306	20.206	0.705
1083.000	597.442	80.008	19.990	100.307	20.204	0.819
1083.500	597.701	80.010	19.991	100.306	20.206	0.711
1084.000	597.926	80.010	19.990	100.303	20.204	0.855
1084.500	598.215	80.001	19.987	100.301	20.206	0.692
1085.001	598.441	80.006	19.989	100.296	20.204	0.829
1085.501	598.707	80.017	19.994	100.290	20.206	0.710
1086.000	598.940	80.020	19.995	100.291	20.205	0.755
1086.500	599.183	80.010	19.990	100.295	20.205	0.761
1087.000	599.453	80.009	19.990	100.295	20.206	0.718
1087.500	599.665	80.011	19.992	100.291	20.204	0.820
1088.001	599.953	80.007	19.989	100.294	20.204	0.847
1088.501	600.172	80.007	19.989	100.292	20.205	0.780
1089.000	600.421	80.015	19.994	100.290	20.206	0.731
1089.500	600.677	80.007	19.990	100.292	20.206	0.711
1090.000	600.929	80.011	19.991	100.298	20.206	0.689
1090.500	601.192	80.009	19.990	100.301	20.206	0.684
1091.000	601.411	80.001	19.986	100.303	20.205	0.779
1091.500	601.687	80.006	19.989	100.298	20.206	0.710
1092.000	601.918	80.005	19.988	100.295	20.207	0.615
1092.500	602.193	80.008	19.991	100.295	20.207	0.585
1093.000	602.420	80.008	19.990	100.295	20.206	0.671
1093.500	602.651	80.006	19.989	100.295	20.206	0.655
1094.000	602.919	80.009	19.990	100.298	20.206	0.679
1094.501	603.135	80.012	19.993	100.297	20.206	0.693
1095.001	603.422	80.015	19.993	100.300	20.207	0.601
1095.500	603.660	80.020	19.995	100.302	20.209	0.465
1096.000	603.911	80.005	19.988	100.305	20.209	0.420
1096.500	604.160	80.005	19.988	100.306	20.208	0.549
1097.000	604.406	80.004	19.988	100.304	20.207	0.620
1097.500	604.666	80.009	19.990	100.300	20.208	0.501
1098.000	604.891	80.015	19.993	100.297	20.209	0.444
1098.500	605.149	80.003	19.988	100.296	20.208	0.547
1099.001	605.386	80.010	19.990	100.296	20.208	0.551
1099.501	605.643	80.016	19.993	100.301	20.208	0.518
1100.000	605.898	80.017	19.994	100.305	20.207	0.627
1100.500	606.125	80.006	19.988	100.309	20.208	0.533
1101.000	606.398	80.007	19.987	100.306	20.208	0.510
1101.500	606.623	80.009	19.990	100.306	20.210	0.384
1102.000	606.895	80.009	19.990	100.304	20.208	0.554
1102.500	607.110	80.007	19.989	100.301	20.209	0.451
1103.000	607.383	80.013	19.992	100.296	20.209	0.471
1103.500	607.637	80.006	19.989	100.298	20.209	0.447
1104.000	607.859	80.015	19.993	100.299	20.210	0.348
1104.500	608.119	80.014	19.993	100.303	20.209	0.455
1105.000	608.359	80.017	19.994	100.305	20.207	0.597
1105.500	608.636	80.013	19.993	100.309	20.209	0.492
1106.000	608.850	80.011	19.990	100.310	20.208	0.546
1106.500	609.121	80.003	19.988	100.307	20.209	0.486
1107.001	609.352	80.008	19.991	100.302	20.208	0.532
1107.501	609.597	80.002	19.988	100.300	20.209	0.490
1108.000	609.853	80.008	19.990	100.295	20.209	0.457
1108.500	610.097	80.010	19.992	100.292	20.208	0.544
1109.000	610.356	80.004	19.988	100.296	20.208	0.502
1109.500	610.595	80.010	19.990	100.295	20.208	0.531
1110.000	610.853	80.013	19.993	100.296	20.208	0.507
1110.500	611.107	80.005	19.988	100.300	20.208	0.547
1111.000	611.328	80.007	19.990	100.294	20.207	0.592
1111.500	611.588	80.012	19.991	100.288	20.208	0.505
1112.000	611.810	80.006	19.990	100.289	20.208	0.513
1112.500	612.099	80.003	19.988	100.287	20.208	0.497
1113.000	612.318	80.010	19.991	100.282	20.208	0.557
1113.500	612.582	80.017	19.993	100.289	20.208	0.541
1114.000	612.835	80.017	19.994	100.296	20.208	0.566
1114.501	613.068	80.002	19.987	100.301	20.206	0.659
1115.001	613.333	80.003	19.988	100.300	20.207	0.639
1115.500	613.559	80.013	19.992	100.302	20.207	0.598
1116.000	613.839	80.008	19.990	100.303	20.207	0.648
1116.500	614.058	80.021	19.994	100.299	20.208	0.565
1117.001	614.318	80.008	19.990	100.293	20.206	0.659
1117.501	614.537	80.009	19.991	100.291	20.207	0.619
1118.000	614.799	80.012	19.991	100.290	20.207	0.623
1118.500	615.055	80.015	19.993	100.286	20.207	0.593
1119.000	615.290	80.009	19.990	100.284	20.206	0.672
1119.500	615.574	80.019	19.995	100.285	20.208	0.536
1120.000	615.800	80.012	19.992	100.293	20.207	0.597
1120.500	616.072	80.002	19.987	100.294	20.207	0.650
1121.000	616.295	80.007	19.989	100.295	20.207	0.630
1121.500	616.539	80.012	19.992	100.296	20.207	0.629
1122.000	616.795	80.007	19.989	100.296	20.208	0.505
1122.500	617.023	80.007	19.989	100.292	20.207	0.617
1123.000	617.301	80.010	19.991	100.292	20.207	0.580
1123.500	617.525	80.004	19.988	100.295	20.207	0.587
1124.000	617.801	80.004	19.988	100.295	20.208	0.556
1124.501	618.031	80.002	19.986	100.294	20.207	0.601
1125.001	618.273	80.007	19.989	100.292	20.206	0.662
1125.500	618.547	80.013	19.993	100.293	20.208	0.527
1126.000	618.757	80.006	19.989	100.293	20.208	0.537
1126.500	619.040	80.010	19.991	100.295	20.208	0.501
1127.000	619.265	80.000	19.986	100.296	20.207	0.638
1127.501	619.512	80.012	19.992	100.292	20.207	0.597
1128.001	619.761	80.005	19.988	100.292	20.207	0.586
1128.500	620.003	80.013	19.993	100.285	20.209	0.495
1129.000	620.271	80.005	19.988	100.285	20.207	0.617
1129.500	620.488	80.010	19.991	100.285	20.208	0.555
1130.001	620.770	80.016	19.994	100.290	20.206	0.666
1130.501	621.005	80.004	19.987	100.295	20.208	0.529
1131.001	621.264	80.008	19.990	100.300	20.205	0.745
1131.500	621.498	80.014	19.992	100.301	20.207	0.581
1132.000	621.759	80.004	19.988	100.301	20.207	0.586
1132.500	622.016	80.007	19.989	100.299	20.207	0.582
1133.000	622.246	80.013	19.992	100.288	20.207	0.640
1133.500	622.501	80.012	19.991	100.287	20.208	0.519
1134.000	622.730	80.008	19.989	100.285	20.208	0.543
1134.500	622.998	80.013	19.992	100.282	20.208	0.539
1135.000	623.250	80.015	19.993	100.286	20.208	0.541
1135.500	623.480	80.016	19.994	100.296	20.208	0.547
1136.000	623.736	80.007	19.989	100.302	20.207	0.640
1136.500	623.959	80.014	19.992	100.308	20.207	0.595
1137.000	624.241	80.014	19.993	100.312	20.207	0.603
1137.501	624.453	80.007	19.988	100.310	20.206	0.677
1138.001	624.716	80.019	19.995	100.303	20.207	0.650
1138.501	624.968	80.010	19.990	100.305	20.207	0.615
1139.001	625.213	80.008	19.990	100.301	20.207	0.606
1139.500	625.470	80.003	19.987	100.301	20.208	0.551
1140.000	625.689	80.006	19.989	100.300	20.208	0.524
1140.500	625.970	80.005	19.988	100.305	20.208	0.529
1141.000	626.200	80.005	19.988	100.299	20.207	0.601
1141.500	626.461	80.007	19.990	100.296	20.207	0.620
1142.000	626.699	80.004	19.989	100.294	20.206	0.697
1142.500	626.948	80.008	19.991	100.292	20.209	0.482
1143.000	627.206	80.005	19.988	100.291	20.207	0.596
1143.500	627.412	80.003	19.987	100.290	20.208	0.518
1144.000	627.691	80.008	19.990	100.285	20.208	0.506
1144.500	627.927	80.003	19.988	100.287	20.209	0.450
1145.000	628.190	80.004	19.988	100.289	20.209	0.480
1145.500	628.424	80.012	19.992	100.289	20.209	0.474
1146.000	628.660	80.019	19.995	100.294	20.208	0.545
1146.500	628.930	80.016	19.994	100.305	20.209	0.480
1147.000	629.139	80.009	19.990	100.306	20.208	0.547
1147.501	629.413	80.011	19.991	100.303	20.209	0.464
1148.001	629.639	80.005	19.989	100.299	20.208	0.546
1148.500	629.914	80.019	19.994	100.293	20.208	0.539
1149.000	630.133	80.002	19.987	100.290	20.208	0.541
1149.500	630.390	80.010	19.990	100.280	20.208	0.530
1150.000	630.634	80.009	19.990	100.279	20.209	0.494
1150.500	630.861	80.010	19.990	100.281	20.210	0.415
1151.000	631.158	80.017	19.994	100.279	20.208	0.525
1151.500	631.360	80.013	19.992	100.278	20.208	0.539
1152.000	631.618	80.001	19.986	100.281	20.207	0.623
1152.500	631.854	80.005	19.988	100.278	20.208	0.527
1153.000	632.117	80.000	19.987	100.273	20.208	0.504
1153.500	632.353	80.004	19.987	100.271	20.210	0.411
1154.000	632.572	80.008	19.989	100.268	20.210	0.372
1154.500	632.852	80.012	19.992	100.274	20.208	0.527
1155.000	633.082	80.009	19.990	100.283	20.207	0.577
1155.500	633.344	80.002	19.986	100.288	20.210	0.373
1156.000	633.586	80.004	19.988	100.291	20.209	0.480
1156.500	633.821	80.009	19.989	100.292	20.208	0.529
1157.000	634.080	80.014	19.992	100.289	20.209	0.488
1157.500	634.305	80.012	19.992	100.288	20.208	0.499
1158.000	634.589	80.000	19.986	100.288	20.209	0.489
1158.500	634.800	80.010	19.990	100.287	20.209	0.442
1159.001	635.063	80.004	19.987	100.284	20.210	0.406
1159.501	635.307	80.015	19.993	100.280	20.209	0.476
1160.000	635.562	80.001	19.986	100.275	20.211	0.336
1160.500	635.794	80.002	19.987	100.268	20.210	0.400
1161.000	636.026	80.004	19.986	100.266	20.210	0.352
1161.500	636.318	80.003	19.987	100.262	20.208	0.522
1162.000	636.517	80.017	19.993	100.260	20.208	0.499
1162.500	636.778	80.012	19.990	100.260	20.208	0.521
1163.000	637.027	80.006	19.988	100.264	20.209	0.477
1163.500	637.256	80.001	19.984	100.264	20.208	0.560
1164.000	637.524	80.010	19.989	100.262	20.208	0.532
1164.500	637.749	80.019	19.994	100.264	20.208	0.499
1165.000	638.018	80.009	19.990	100.264	20.208	0.548
1165.501	638.244	80.007	19.987	100.261	20.208	0.531
1166.001	638.501	80.008	19.989	100.260	20.208	0.571
1166.500	638.734	80.012	19.991	100.264	20.207	0.595
1167.000	638.981	80.011	19.989	100.265	20.206	0.680
1167.500	639.236	80.006	19.987	100.262	20.206	0.683
1168.000	639.458	80.011	19.989	100.263	20.207	0.645
1168.500	639.756	80.009	19.990	100.265	20.205	0.766
1169.000	639.965	80.004	19.987	100.268	20.206	0.668
1169.500	640.218	80.007	19.989	100.268	20.206	0.684
1170.000	640.456	80.012	19.991	100.272	20.207	0.606
1170.500	640.706	80.006	19.987	100.281	20.204	0.817
1171.000	640.963	80.001	19.986	100.287	20.206	0.686
1171.500	641.172	80.011	19.990	100.288	20.208	0.574
1172.000	641.458	80.010	19.988	100.293	20.206	0.677
1172.500	641.679	80.016	19.992	100.296	20.207	0.595
1173.000	641.921	80.005	19.987	100.296	20.208	0.527
1173.500	642.176	80.005	19.987	100.293	20.208	0.533
1174.000	642.412	80.013	19.991	100.295	20.209	0.482
1174.500	642.677	80.001	19.985	100.296	20.209	0.475
1175.000	642.902	80.008	19.989	100.287	20.210	0.385
1175.500	643.188	80.002	19.986	100.279	20.208	0.513
1176.000	643.392	80.006	19.988	100.274	20.210	0.348
1176.501	643.650	80.018	19.993	100.269	20.210	0.342
1177.001	643.898	80.014	19.991	100.265	20.212	0.248
1177.500	644.134	80.000	19.985	100.268	20.213	0.153
1178.000	644.388	80.017	19.993	100.267	20.211	0.272
1178.500	644.610	80.008	19.989	100.276	20.212	0.229
1179.000	644.901	80.010	19.989	100.280	20.212	0.179
1179.501	645.120	80.017	19.993	100.281	20.213	0.113
1180.001	645.369	80.015	19.992	100.285	20.214	0.058
1180.501	645.618	80.010	19.990	100.294	20.215	0.006
1181.001	645.846	80.009	19.989	100.294	20.215	-0.004
1181.501	646.114	80.006	19.988	100.298	20.215	-0.014
1182.001	646.356	80.009	19.990	100.299	20.215	-0.045
1182.500	646.612	80.014	19.992	100.296	20.214	0.020
1183.000	646.833	80.011	19.990	100.291	20.217	-0.172
1183.500	647.098	80.009	19.989	100.285	20.216	-0.078
1184.000	647.321	80.021	19.995	100.282	20.214	0.036
1184.500	647.559	80.007	19.988	100.288	20.212	0.185
1185.000	647.848	80.012	19.991	100.288	20.214	0.079
1185.500	648.062	80.002	19.986	100.290	20.213	0.178
1186.000	648.328	80.003	19.986	100.289	20.211	0.313
1186.500	648.563	80.010	19.990	100.288	20.212	0.230
1187.000	648.818	80.011	19.990	100.284	20.211	0.309
1187.500	649.058	80.011	19.990	100.286	20.210	0.410
1188.000	649.305	80.016	19.993	100.283	20.211	0.318
1188.500	649.559	80.005	19.988	100.286	20.211	0.328
1189.001	649.767	80.003	19.987	100.283	20.211	0.269
1189.501	650.045	80.019	19.994	100.277	20.211	0.276
1190.000	650.286	80.004	19.987	100.278	20.211	0.324
1190.500	650.538	80.018	19.993	100.275	20.211	0.312
1191.000	650.789	80.007	19.988	100.276	20.211	0.317
1191.500	651.023	80.003	19.987	100.276	20.212	0.240
1192.001	651.278	79.999	19.985	100.274	20.212	0.189
1192.501	651.494	80.014	19.992	100.266	20.213	0.106
1193.000	651.782	80.006	19.987	100.273	20.212	0.237
1193.500	652.013	80.013	19.992	100.272	20.214	0.038
1194.000	652.264	80.010	19.989	100.281	20.213	0.123
1194.500	652.513	80.002	19.987	100.289	20.215	-0.023
1195.000	652.754	80.005	19.986	100.297	20.213	0.142
1195.500	653.007	80.008	19.988	100.295	20.213	0.156
1196.000	653.245	80.008	19.989	100.298	20.213	0.118
1196.500	653.504	80.010	19.989	100.293	20.212	0.212
1197.000	653.735	80.009	19.989	100.293	20.212	0.229
1197.500	654.001	80.014	19.992	100.293	20.212	0.231
1198.000	654.234	80.006	19.988	100.298	20.210	0.374
1198.500	654.474	80.018	19.993	100.298	20.210	0.361
1199.000	654.741	80.003	19.984	100.303	20.212	0.235
1199.500	654.967	79.998	19.983	100.299	20.210	0.405
1200.000	655.233	80.007	19.988	100.295	20.210	0.354
1200.501	655.474	80.006	19.987	100.293	20.210	0.340
1201.001	655.720	80.007	19.989	100.290	20.212	0.195
1201.500	655.962	80.009	19.990	100.285	20.213	0.162
1202.001	656.214	80.006	19.988	100.288	20.210	0.391
1202.501	656.473	80.008	19.988	100.289	20.210	0.349
1203.000	656.703	80.006	19.988	100.288	20.209	0.466
1203.500	656.964	80.009	19.989	100.290	20.210	0.346
1204.000	657.204	80.012	19.990	100.292	20.210	0.383
1204.500	657.453	80.018	19.993	100.292	20.210	0.410
1205.001	657.716	80.003	19.988	100.300	20.209	0.423
1205.501	657.965	80.007	19.987	100.298	20.208	0.517
1206.001	658.207	80.015	19.992	100.298	20.209	0.459
1206.500	658.420	80.008	19.988	100.301	20.208	0.517
1207.000	658.719	80.019	19.993	100.297	20.210	0.412
1207.501	658.957	80.010	19.989	100.292	20.209	0.496
1208.001	659.186	80.015	19.993	100.290	20.209	0.461
1208.500	659.441	80.003	19.986	100.295	20.208	0.536
1209.000	659.684	80.005	19.990	100.290	20.211	0.334
1209.500	659.947	80.012	19.990	100.296	20.209	0.486
1210.000	660.180	80.007	19.986	100.298	20.209	0.474
1210.500	660.463	80.016	19.991	100.300	20.209	0.434
1211.000	660.691	80.006	19.987	100.299	20.209	0.472
1211.500	660.941	80.005	19.986	100.299	20.208	0.537
1212.000	661.179	80.016	19.992	100.296	20.209	0.470
1212.500	661.424	80.015	19.992	100.297	20.209	0.438
1213.000	661.689	80.006	19.987	100.302	20.209	0.424
1213.500	661.914	80.007	19.988	100.299	20.208	0.524
1214.000	662.190	80.017	19.993	100.294	20.211	0.337
1214.501	662.433	80.005	19.987	100.299	20.209	0.435
1215.001	662.681	80.009	19.989	100.296	20.209	0.440
1215.501	662.918	80.008	19.989	100.293	20.210	0.406
1216.001	663.180	80.012	19.991	100.294	20.210	0.415
1216.500	663.441	80.007	19.987	100.300	20.210	0.405
1217.001	663.651	80.012	19.990	100.292	20.211	0.293
1217.501	663.932	80.014	19.991	100.288	20.210	0.363
1218.000	664.167	80.003	19.987	100.286	20.210	0.359
1218.500	664.426	80.004	19.986	100.282	20.211	0.323
1219.000	664.668	80.010	19.989	100.281	20.211	0.274
1219.500	664.900	80.016	19.991	100.285	20.210	0.400
1220.000	665.170	80.013	19.991	100.289	20.212	0.255
1220.500	665.393	80.007	19.987	100.292	20.209	0.490
1221.000	665.671	79.999	19.983	100.293	20.209	0.447
1221.500	665.890	80.004	19.985	100.288	20.211	0.306
1222.000	666.153	80.006	19.988	100.281	20.210	0.412
1222.500	666.399	80.008	19.988	100.277	20.210	0.410
1223.000	666.631	80.008	19.987	100.274	20.211	0.335
1223.500	666.896	80.012	19.989	100.275	20.209	0.452
1224.000	667.127	80.007	19.988	100.282	20.210	0.396
1224.500	667.394	80.014	19.989	100.287	20.211	0.290
1225.000	667.620	80.003	19.984	100.291	20.210	0.373
1225.500	667.860	80.010	19.988	100.278	20.210	0.358
1226.000	668.108	80.006	19.987	100.272	20.209	0.420
1226.500	668.351	80.018	19.992	100.269	20.209	0.423
1227.001	668.597	80.006	19.988	100.275	20.209	0.466
1227.501	668.833	80.011	19.989	100.273	20.209	0.423
1228.000	669.116	80.016	19.992	100.283	20.210	0.379
1228.500	669.334	80.019	19.992	100.291	20.210	0.404
1229.000	669.592	80.010	19.989	100.300	20.210	0.415
1229.500	669.821	80.009	19.989	100.292	20.209	0.457
1230.001	670.053	80.013	19.990	100.287	20.210	0.372
1230.501	670.335	80.008	19.987	100.289	20.209	0.431
1231.000	670.553	80.004	19.986	100.284	20.209	0.478
1231.500	670.810	80.004	19.986	100.271	20.209	0.453
1232.000	671.039	80.007	19.987	100.273	20.208	0.524
1232.500	671.308	80.012	19.990	100.276	20.209	0.456
1233.000	671.542	80.012	19.990	100.277	20.208	0.499
1233.500	671.786	80.005	19.987	100.281	20.210	0.349
1234.001	672.047	80.009	19.987	100.283	20.210	0.402
1234.501	672.263	80.011	19.989	100.285	20.211	0.309
1235.000	672.543	80.009	19.988	100.286	20.210	0.413
1235.500	672.754	80.006	19.987	100.285	20.210	0.381
1236.000	673.021	80.005	19.987	100.283	20.211	0.311
1236.500	673.247	80.014	19.991	100.282	20.211	0.309
1237.000	673.498	80.021	19.995	100.279	20.211	0.328
1237.500	673.729	80.013	19.991	100.282	20.211	0.311
1238.000	673.983	80.002	19.987	100.280	20.211	0.302
1238.500	674.266	80.007	19.988	100.278	20.212	0.248
1239.001	674.481	80.002	19.987	100.282	20.211	0.306
1239.501	674.737	80.012	19.991	100.283	20.211	0.306
1240.000	674.966	80.001	19.986	100.283	20.212	0.215
1240.500	675.205	80.004	19.987	100.282	20.211	0.309
1241.000	675.467	80.011	19.990	100.285	20.210	0.393
1241.500	675.672	80.008	19.989	100.286	20.211	0.267
1242.000	675.976	80.014	19.992	100.290	20.212	0.244
1242.500	676.183	80.018	19.993	100.289	20.212	0.216
1243.000	676.434	80.014	19.991	100.291	20.212	0.220
1243.500	676.681	80.012	19.991	100.292	20.211	0.322
1244.000	676.928	80.004	19.987	100.290	20.212	0.216
1244.500	677.188	80.012	19.990	100.283	20.212	0.203
1245.000	677.416	80.019	19.994	100.279	20.212	0.206
1245.500	677.683	80.007	19.988	100.280	20.212	0.226
1246.000	677.905	80.014	19.991	100.275	20.213	0.152
1246.500	678.152	80.005	19.987	100.273	20.213	0.165
1247.001	678.393	80.008	19.990	100.273	20.214	0.089
1247.501	678.631	80.007	19.989	100.275	20.215	0.002
1248.001	678.890	80.010	19.990	100.272	20.216	-0.069
1248.501	679.104	80.005	19.987	100.277	20.214	0.020
1249.001	679.376	80.000	19.985	100.277	20.214	0.048
1249.500	679.609	80.020	19.994	100.275	20.216	-0.075
1250.000	679.879	80.010	19.989	100.278	20.215	-0.025
1250.500	680.123	80.007	19.988	100.279	20.216	-0.094
1251.000	680.365	80.008	19.988	100.276	20.216	-0.136
1251.500	680.633	80.019	19.995	100.275	20.216	-0.125
1252.000	680.835	80.006	19.988	100.282	20.215	-0.026
1252.500	681.132	80.008	19.989	100.275	20.215	-0.051
1253.000	681.358	80.010	19.989	100.273	20.215	0.018
1253.500	681.621	80.008	19.989	100.273	20.214	0.066
1254.000	681.842	80.010	19.989	100.273	20.215	-0.021
1254.500	682.106	80.009	19.989	100.270	20.214	0.052
1255.000	682.382	80.005	19.987	100.272	20.213	0.153
1255.500	682.623	80.007	19.989	100.269	20.212	0.210
1256.000	682.894	80.012	19.991	100.267	20.213	0.155
1256.500	683.127	80.005	19.987	100.269	20.213	0.126
1257.000	683.388	80.015	19.993	100.265	20.212	0.200
1257.500	683.632	80.012	19.991	100.269	20.212	0.215
1258.000	683.871	80.012	19.991	100.272	20.213	0.155
1258.500	684.139	80.011	19.989	100.277	20.213	0.169
1259.000	684.391	80.010	19.991	100.279	20.211	0.317
1259.500	684.675	80.016	19.992	100.282	20.212	0.207
1260.000	684.923	80.016	19.992	100.283	20.212	0.240
1260.500	685.187	80.008	19.990	100.283	20.212	0.235
1261.001	685.429	80.011	19.990	100.283	20.211	0.316
1261.501	685.683	80.009	19.989	100.281	20.211	0.265
1262.000	685.962	80.009	19.989	100.283	20.211	0.260
1262.500	686.188	80.009	19.989	100.284	20.211	0.292
1263.000	686.478	80.009	19.990	100.285	20.211	0.334
1263.500	686.719	80.002	19.987	100.283	20.211	0.305
1264.000	686.986	80.013	19.991	100.281	20.212	0.231
1264.500	687.235	80.008	19.989	100.286	20.211	0.321
1265.000	687.492	80.007	19.989	100.282	20.212	0.195
1265.500	687.779	80.014	19.992	100.280	20.211	0.266
1266.001	688.007	80.006	19.989	100.281	20.211	0.284
1266.501	688.321	80.007	19.989	100.281	20.212	0.237
1267.001	688.542	80.015	19.991	100.274	20.211	0.317
1267.500	688.835	80.005	19.988	100.274	20.210	0.339
1268.001	689.086	80.005	19.988	100.271	20.211	0.305
1268.501	689.350	80.010	19.990	100.266	20.211	0.282
1269.000	689.630	80.005	19.988	100.267	20.211	0.308
1269.500	689.869	80.013	19.992	100.266	20.212	0.194
1270.000	690.164	80.012	19.991	100.265	20.211	0.263
1270.500	690.411	80.012	19.991	100.268	20.212	0.215
1271.000	690.695	80.006	19.989	100.272	20.212	0.198
1271.500	690.943	80.009	19.989	100.271	20.211	0.316
1272.000	691.212	80.006	19.988	100.273	20.213	0.144
1272.501	691.496	80.007	19.989	100.273	20.211	0.268
1273.001	691.739	80.007	19.989	100.272	20.212	0.236
1273.500	692.018	80.013	19.991	100.269	20.212	0.193
1274.000	692.258	80.012	19.993	100.272	20.212	0.256
1274.500	692.531	80.013	19.993	100.275	20.213	0.120
1275.000	692.789	80.012	19.991	100.278	20.211	0.258
1275.500	693.045	80.007	19.989	100.279	20.212	0.207
1276.000	693.340	79.999	19.985	100.280	20.212	0.235
1276.500	693.568	80.004	19.988	100.278	20.212	0.209
1277.000	693.887	80.009	19.991	100.273	20.213	0.165
1277.500	694.105	80.004	19.988	100.271	20.213	0.134
1278.000	694.377	80.010	19.990	100.268	20.214	0.097
1278.500	694.646	80.009	19.991	100.269	20.213	0.123
1279.000	694.897	80.007	19.990	100.273	20.212	0.203
1279.500	695.195	80.019	19.995	100.275	20.213	0.122
1280.000	695.426	80.009	19.990	100.275	20.214	0.057
1280.500	695.726	80.011	19.992	100.277	20.214	0.072
1281.000	695.955	80.005	19.989	100.278	20.214	0.027
1281.500	696.268	80.012	19.991	100.274	20.214	0.096
1282.000	696.502	80.019	19.994	100.273	20.213	0.109
1282.500	696.760	80.008	19.989	100.273	20.213	0.176
1283.000	697.041	80.011	19.991	100.272	20.213	0.115
1283.500	697.271	80.009	19.991	100.273	20.215	-0.024
1284.000	697.577	80.003	19.987	100.274	20.213	0.123
1284.500	697.825	80.011	19.991	100.271	20.214	0.036
1285.001	698.101	80.007	19.989	100.271	20.213	0.110
1285.501	698.358	80.004	19.987	100.272	20.214	0.099
1286.001	698.602	80.014	19.993	100.268	20.213	0.153
1286.500	698.872	80.013	19.992	100.269	20.214	0.034
1287.000	699.131	80.016	19.993	100.272	20.213	0.148
1287.500	699.426	80.009	19.990	100.271	20.212	0.213
1288.000	699.664	80.020	19.995	100.271	20.214	0.092
1288.500	699.929	80.006	19.988	100.278	20.213	0.132
1289.000	700.177	80.004	19.987	100.274	20.213	0.163
1289.500	700.444	80.010	19.990	100.270	20.214	0.064
1290.000	700.715	80.007	19.990	100.267	20.214	0.030
1290.500	700.947	80.000	19.986	100.267	20.214	0.026
1291.000	701.237	80.007	19.989	100.258	20.214	0.073
1291.500	701.476	80.010	19.990	100.258	20.214	0.089
1292.000	701.749	80.005	19.988	100.259	20.214	0.074
1292.500	702.006	80.012	19.991	100.257	20.214	0.051
1293.001	702.248	80.011	19.990	100.259	20.215	0.014
1293.501	702.520	80.014	19.992	100.263	20.215	-0.038
1294.000	702.761	80.018	19.995	100.266	20.214	0.056
1294.500	703.053	80.019	19.994	100.271	20.215	0.005
1295.001	703.285	80.005	19.988	100.276	20.214	0.022
1295.501	703.542	80.003	19.988	100.274	20.214	0.094
1296.001	703.801	80.004	19.989	100.272	20.215	0.018
1296.500	704.048	80.013	19.991	100.269	20.214	0.096
1297.000	704.320	80.007	19.989	100.267	20.214	0.055
1297.500	704.538	80.016	19.993	100.264	20.214	0.086
1298.000	704.829	80.007	19.989	100.269	20.213	0.128
1298.500	705.081	80.010	19.991	100.271	20.215	0.012
1299.000	705.344	80.011	19.992	100.274	20.213	0.126
1299.500	705.593	80.006	19.989	100.272	20.214	0.044
1300.000	705.832	80.013	19.992	100.273	20.215	0.003
1300.500	706.093	80.010	19.990	100.271	20.214	0.020
1301.000	706.340	80.004	19.987	100.271	20.213	0.163
1301.500	706.610	80.011	19.991	100.268	20.215	-0.009
1302.000	706.853	80.006	19.989	100.270	20.214	0.076
1302.500	707.099	80.012	19.991	100.270	20.213	0.112
1303.000	707.349	80.004	19.988	100.273	20.214	0.050
1303.500	707.595	80.015	19.992	100.272	20.213	0.107
1304.001	707.867	80.005	19.989	100.276	20.214	0.031
1304.501	708.094	80.009	19.991	100.273	20.215	0.019
1305.001	708.367	80.009	19.989	100.274	20.214	0.022
1305.500	708.604	80.011	19.990	100.268	20.215	-0.056
1306.000	708.857	80.003	19.988	100.270	20.216	-0.062
1306.501	709.124	80.010	19.990	100.265	20.215	-0.019
1307.001	709.342	80.008	19.989	100.266	20.216	-0.106
1307.500	709.611	80.007	19.989	100.265	20.216	-0.138
1308.000	709.835	80.008	19.990	100.263	20.217	-0.203
1308.500	710.111	80.010	19.990	100.262	20.218	-0.249
1309.000	710.331	80.008	19.989	100.264	20.217	-0.205
1309.500	710.602	80.008	19.989	100.263	20.217	-0.180
1310.000	710.848	80.013	19.992	100.263	20.218	-0.224
1310.500	711.068	80.008	19.989	100.265	20.219	-0.308
1311.000	711.333	80.008	19.989	100.265	20.217	-0.208
1311.500	711.564	80.006	19.989	100.263	20.219	-0.370
1312.001	711.848	80.006	19.988	100.263	20.218	-0.240
1312.501	712.053	80.004	19.989	100.261	20.219	-0.368
1313.000	712.324	80.000	19.987	100.261	20.220	-0.379
1313.501	712.552	80.012	19.991	100.258	20.218	-0.242
1314.001	712.804	80.012	19.992	100.260	20.218	-0.259
1314.500	713.044	80.006	19.988	100.263	20.219	-0.312
1315.000	713.282	80.003	19.988	100.263	20.218	-0.269
1315.500	713.565	80.012	19.992	100.261	20.219	-0.320
1316.000	713.767	80.003	19.987	100.267	20.218	-0.279
1316.500	714.029	80.013	19.993	100.263	20.220	-0.385
1317.000	714.261	80.008	19.989	100.264	20.219	-0.345
1317.500	714.514	80.010	19.990	100.264	20.220	-0.392
1318.000	714.740	80.007	19.989	100.266	20.221	-0.527
1318.500	714.960	80.001	19.985	100.262	20.220	-0.419
1319.000	715.264	80.009	19.989	100.261	20.220	-0.391
1319.500	715.491	80.006	19.988	100.258	20.220	-0.424
1320.000	715.740	80.011	19.990	100.257	20.221	-0.479
1320.500	715.968	80.010	19.991	100.258	20.220	-0.396
1321.000	716.193	80.007	19.989	100.260	20.221	-0.476
1321.500	716.464	80.014	19.992	100.265	20.220	-0.428
1322.000	716.686	80.008	19.989	100.268	20.220	-0.441
1322.500	716.967	80.006	19.989	100.269	20.220	-0.418
1323.000	717.173	80.019	19.994	100.269	20.220	-0.386
1323.501	717.423	80.005	19.988	100.273	20.221	-0.501
1324.001	717.664	80.008	19.990	100.274	20.220	-0.419
1324.500	717.911	80.009	19.990	100.273	20.221	-0.462
1325.000	718.177	80.018	19.994	100.273	20.220	-0.410
1325.500	718.385	80.008	19.990	100.276	20.220	-0.405
1326.000	718.664	80.012	19.991	100.271	20.217	-0.210
1326.500	718.875	80.010	19.991	100.270	20.220	-0.400
1327.000	719.147	80.010	19.990	100.269	20.219	-0.375
1327.501	719.364	80.013	19.991	100.270	20.219	-0.349
1328.001	719.607	80.012	19.991	100.268	20.220	-0.398
1328.500	719.871	80.006	19.989	100.268	20.218	-0.246
1329.000	720.089	80.009	19.990	100.267	20.219	-0.341
1329.500	720.353	80.011	19.990	100.266	20.217	-0.199
1330.001	720.575	80.006	19.989	100.265	20.221	-0.490
1330.501	720.813	80.010	19.990	100.261	20.218	-0.294
1331.000	721.055	80.005	19.988	100.260	20.219	-0.354
1331.500	721.294	80.015	19.991	100.256	20.217	-0.202
1332.000	721.552	80.010	19.989	100.258	20.217	-0.143
1332.500	721.779	80.011	19.991	100.258	20.218	-0.228
1333.000	722.044	80.012	19.992	100.261	20.218	-0.245
1333.500	722.260	80.009	19.991	100.263	20.218	-0.282
1334.000	722.510	80.011	19.990	100.266	20.216	-0.129
1334.500	722.758	80.012	19.991	100.264	20.217	-0.152
1335.000	722.988	80.006	19.988	100.266	20.218	-0.227
1335.500	723.239	80.012	19.990	100.265	20.216	-0.094
1336.000	723.468	80.012	19.991	100.264	20.217	-0.170
1336.501	723.745	80.005	19.987	100.265	20.217	-0.147
1337.001	723.962	80.008	19.988	100.264	20.218	-0.271
1337.501	724.223	80.009	19.989	100.261	20.217	-0.194
1338.000	724.448	80.008	19.988	100.261	20.218	-0.291
1338.501	724.675	80.012	19.991	100.259	20.219	-0.330
1339.001	724.943	80.007	19.989	100.257	20.218	-0.253
1339.500	725.169	80.009	19.989	100.255	20.218	-0.264
1340.000	725.420	80.012	19.989	100.253	20.217	-0.198
1340.500	725.662	80.009	19.989	100.251	20.218	-0.297
1341.000	725.893	80.008	19.989	100.246	20.219	-0.313
1341.500	726.135	80.012	19.990	100.243	20.217	-0.188
1342.000	726.385	80.008	19.990	100.242	20.217	-0.178
1342.500	726.639	80.008	19.989	100.239	20.217	-0.166
1343.000	726.868	80.010	19.990	100.238	20.217	-0.174
1343.500	727.122	80.009	19.989	100.238	20.217	-0.178
1344.000	727.332	80.001	19.985	100.235	20.217	-0.172
1344.500	727.606	80.013	19.991	100.230	20.218	-0.234
1345.001	727.848	80.015	19.992	100.231	20.217	-0.147
1345.501	728.062	80.013	19.992	100.229	20.215	-0.055
1346.000	728.347	80.012	19.991	100.232	20.217	-0.139
1346.500	728.549	80.011	19.990	100.235	20.217	-0.180
1347.000	728.817	80.018	19.993	100.237	20.217	-0.206
1347.500	729.047	80.001	19.986	100.244	20.216	-0.098
1348.000	729.314	80.018	19.993	100.238	20.217	-0.161
1348.500	729.540	80.008	19.989	100.241	20.217	-0.200
1349.000	729.785	80.012	19.991	100.240	20.216	-0.114
1349.500	730.046	80.014	19.992	100.245	20.216	-0.080
1350.000	730.258	80.006	19.988	100.244	20.217	-0.173
1350.500	730.532	80.014	19.992	100.252	20.217	-0.197
1351.000	730.751	80.010	19.989	100.255	20.218	-0.231
1351.500	731.000	80.008	19.989	100.257	20.218	-0.271
1352.001	731.242	80.007	19.990	100.258	20.217	-0.149
1352.501	731.489	80.013	19.990	100.254	20.217	-0.162
1353.000	731.738	80.012	19.991	100.252	20.218	-0.259
1353.500	731.949	80.006	19.988	100.248	20.219	-0.344
1354.001	732.229	80.012	19.992	100.249	20.219	-0.372
1354.501	732.443	80.010	19.992	100.250	20.221	-0.465
1355.000	732.715	80.012	19.991	100.254	20.218	-0.279
1355.501	732.954	80.014	19.991	100.259	20.219	-0.322
1356.001	733.190	80.012	19.991	100.262	20.219	-0.319
1356.501	733.447	80.011	19.991	100.263	20.219	-0.303
1357.000	733.672	80.008	19.990	100.263	20.220	-0.426
1357.500	733.947	80.014	19.993	100.259	20.220	-0.418
1358.000	734.174	80.011	19.990	100.259	20.220	-0.377
1358.500	734.412	80.009	19.989	100.258	20.220	-0.423
1359.000	734.660	80.010	19.990	100.258	20.220	-0.429
1359.501	734.899	80.007	19.989	100.259	20.219	-0.361
1360.001	735.160	80.012	19.992	100.260	20.220	-0.390
1360.500	735.388	80.019	19.995	100.261	20.220	-0.428
1361.000	735.655	80.004	19.989	100.265	20.220	-0.444
1361.500	735.885	80.013	19.991	100.264	20.221	-0.488
1362.000	736.143	80.013	19.988	100.262	20.220	-0.422
1362.500	736.389	80.012	19.993	100.260	20.221	-0.461
1363.000	736.619	80.012	19.991	100.259	20.220	-0.425
1363.500	736.864	80.009	19.990	100.256	20.220	-0.380
1364.000	737.095	80.012	19.993	100.256	20.222	-0.537
1364.500	737.381	80.008	19.990	100.259	20.220	-0.444
1365.001	737.600	80.006	19.990	100.258	20.221	-0.465
1365.501	737.868	80.005	19.990	100.259	20.220	-0.398
1366.000	738.100	80.011	19.990	100.258	20.220	-0.432
1366.500	738.340	80.009	19.990	100.257	20.220	-0.418
1367.000	738.599	80.007	19.990	100.257	20.221	-0.479
1367.500	738.830	80.011	19.991	100.258	20.220	-0.448
1368.000	739.105	80.014	19.993	100.259	20.220	-0.456
1368.500	739.325	80.008	19.990	100.261	20.220	-0.439
1369.000	739.580	80.013	19.993	100.259	20.220	-0.439
1369.500	739.819	80.005	19.989	100.258	20.222	-0.572
1370.000	740.066	80.016	19.993	100.258	20.221	-0.502
1370.500	740.311	80.012	19.992	100.260	20.222	-0.608
1371.000	740.527	80.009	19.990	100.260	20.222	-0.556
1371.500	740.809	80.010	19.989	100.263	20.221	-0.499
1372.000	741.031	80.017	19.994	100.265	20.222	-0.556
1372.500	741.288	80.013	19.993	100.269	20.221	-0.530
1373.000	741.530	80.014	19.993	100.271	20.222	-0.573
1373.500	741.767	80.017	19.994	100.273	20.222	-0.578
1374.001	742.027	80.007	19.989	100.276	20.224	-0.717
1374.501	742.259	80.007	19.988	100.275	20.222	-0.572
1375.000	742.532	80.011	19.993	100.269	20.222	-0.602
1375.500	742.756	80.009	19.990	100.267	20.222	-0.591
1376.000	743.016	80.007	19.989	100.264	20.223	-0.640
1376.500	743.268	80.005	19.988	100.260	20.224	-0.754
1377.000	743.509	80.018	19.995	100.258	20.223	-0.678
1377.500	743.783	80.007	19.988	100.263	20.223	-0.663
1378.000	743.979	80.016	19.993	100.261	20.224	-0.711
1378.500	744.272	80.008	19.990	100.263	20.223	-0.624
1379.000	744.507	80.009	19.989	100.264	20.222	-0.570
1379.500	744.731	80.011	19.989	100.267	20.224	-0.733
1380.000	744.961	80.008	19.989	100.265	20.223	-0.643
1380.500	745.225	80.009	19.989	100.266	20.223	-0.659
1381.000	745.476	80.010	19.990	100.261	20.222	-0.576
1381.501	745.712	80.010	19.991	100.260	20.223	-0.640
1382.001	745.981	80.009	19.986	100.258	20.222	-0.591
1382.500	746.202	80.006	19.988	100.253	20.223	-0.666
1383.001	746.475	80.011	19.990	100.252	20.223	-0.632
